SpectraSuite Data File
++++++++++++++++++++++++++++++++++++
Date: Mon Jun 02 11:43:27 PDT 2025
User: Stephen Warren
Dark Spectrum Present: No
Reference Spectrum Present: No
Number of Sampled Component Spectra: 1
Spectrometers: USB2G24357
Integration Time (usec): 48000 (USB2G24357)
Spectra Averaged: 200 (USB2G24357)
Boxcar Smoothing: 0 (USB2G24357)
Correct for Electrical Dark: No (USB2G24357)
Strobe/Lamp Enabled: No (USB2G24357)
Correct for Detector Non-linearity: No (USB2G24357)
Correct for Stray Light: No (USB2G24357)
Number of Pixels in Processed Spectrum: 651
>>>>>Begin Processed Spectral Data<<<<<
350.00	146.22
351.00	146.89
352.00	147.52
353.00	148.06
354.00	148.09
355.00	147.59
356.00	147.08
357.00	146.92
358.00	149.01
359.00	147.56
360.00	147.16
361.00	148.08
362.00	147.95
363.00	147.79
364.00	148.16
365.00	147.62
366.00	148.27
367.00	148.64
368.00	148.73
369.00	149.04
370.00	148.51
371.00	149.24
372.00	148.87
373.00	150.03
374.00	148.57
375.00	148.27
376.00	147.85
377.00	149.07
378.00	149.35
379.00	149.29
380.00	148.31
381.00	149.42
382.00	148.68
383.00	148.38
384.00	148.70
385.00	148.61
386.00	148.88
387.00	149.01
388.00	148.67
389.00	149.38
390.00	148.91
391.00	148.98
392.00	149.83
393.00	150.29
394.00	150.27
395.00	153.02
396.00	150.10
397.00	150.47
398.00	151.34
399.00	151.70
400.00	151.93
401.00	151.71
402.00	152.57
403.00	153.24
404.00	152.75
405.00	153.28
406.00	153.77
407.00	154.73
408.00	154.64
409.00	155.42
410.00	155.23
411.00	155.44
412.00	157.19
413.00	158.67
414.00	159.40
415.00	159.93
416.00	161.40
417.00	161.24
418.00	162.11
419.00	164.88
420.00	165.01
421.00	165.73
422.00	166.29
423.00	166.16
424.00	167.22
425.00	168.32
426.00	169.00
427.00	170.91
428.00	170.71
429.00	172.17
430.00	173.35
431.00	174.53
432.00	176.44
433.00	178.65
434.00	181.71
435.00	183.14
436.00	184.94
437.00	187.64
438.00	190.40
439.00	192.18
440.00	196.34
441.00	197.43
442.00	199.14
443.00	202.12
444.00	203.58
445.00	203.93
446.00	204.75
447.00	205.34
448.00	207.29
449.00	208.76
450.00	208.59
451.00	208.83
452.00	208.53
453.00	211.29
454.00	212.86
455.00	214.39
456.00	216.88
457.00	219.86
458.00	221.86
459.00	224.63
460.00	227.08
461.00	230.16
462.00	234.66
463.00	239.00
464.00	241.79
465.00	245.74
466.00	249.90
467.00	254.51
468.00	257.54
469.00	260.55
470.00	263.96
471.00	265.98
472.00	266.16
473.00	269.28
474.00	271.81
475.00	274.63
476.00	278.21
477.00	281.49
478.00	285.72
479.00	289.94
480.00	293.42
481.00	295.88
482.00	300.92
483.00	306.04
484.00	311.78
485.00	318.16
486.00	322.46
487.00	329.74
488.00	335.23
489.00	342.76
490.00	350.25
491.00	357.64
492.00	366.24
493.00	373.09
494.00	379.37
495.00	384.87
496.00	391.87
497.00	398.59
498.00	403.16
499.00	405.59
500.00	409.50
501.00	410.00
502.00	412.67
503.00	414.14
504.00	414.33
505.00	413.13
506.00	413.72
507.00	414.15
508.00	415.36
509.00	413.21
510.00	412.69
511.00	413.43
512.00	412.97
513.00	413.29
514.00	416.33
515.00	417.28
516.00	417.84
517.00	420.27
518.00	422.06
519.00	426.94
520.00	427.39
521.00	431.49
522.00	434.21
523.00	437.50
524.00	439.27
525.00	444.43
526.00	449.12
527.00	451.60
528.00	456.56
529.00	464.33
530.00	468.12
531.00	472.70
532.00	481.17
533.00	488.94
534.00	496.18
535.00	503.25
536.00	509.81
537.00	513.54
538.00	516.48
539.00	523.00
540.00	524.80
541.00	525.95
542.00	527.25
543.00	527.75
544.00	528.22
545.00	528.70
546.00	527.45
547.00	532.83
548.00	528.81
549.00	529.03
550.00	528.66
551.00	529.27
552.00	527.02
553.00	529.79
554.00	532.32
555.00	534.85
556.00	537.44
557.00	537.07
558.00	538.65
559.00	542.10
560.00	542.00
561.00	543.74
562.00	551.61
563.00	554.42
564.00	558.17
565.00	564.14
566.00	569.52
567.00	571.91
568.00	579.31
569.00	583.46
570.00	592.69
571.00	599.50
572.00	608.46
573.00	613.13
574.00	621.79
575.00	629.35
576.00	633.64
577.00	641.53
578.00	653.39
579.00	656.03
580.00	666.61
581.00	670.33
582.00	676.34
583.00	682.41
584.00	688.00
585.00	687.83
586.00	690.06
587.00	695.08
588.00	694.99
589.00	697.26
590.00	698.78
591.00	695.90
592.00	694.95
593.00	693.23
594.00	692.00
595.00	689.47
596.00	687.46
597.00	687.27
598.00	685.00
599.00	681.22
600.00	681.19
601.00	680.87
602.00	680.11
603.00	680.39
604.00	680.07
605.00	680.04
606.00	678.21
607.00	676.09
608.00	676.01
609.00	678.19
610.00	676.98
611.00	678.94
612.00	683.93
613.00	678.09
614.00	683.73
615.00	680.76
616.00	687.12
617.00	684.82
618.00	688.66
619.00	689.93
620.00	690.86
621.00	695.19
622.00	696.27
623.00	696.95
624.00	698.81
625.00	702.95
626.00	704.12
627.00	708.41
628.00	708.01
629.00	710.31
630.00	709.89
631.00	711.54
632.00	712.01
633.00	710.83
634.00	709.36
635.00	708.52
636.00	705.48
637.00	706.39
638.00	704.57
639.00	700.05
640.00	698.28
641.00	692.02
642.00	686.66
643.00	680.82
644.00	675.38
645.00	671.67
646.00	665.39
647.00	657.94
648.00	650.22
649.00	643.53
650.00	635.91
651.00	629.95
652.00	625.29
653.00	620.68
654.00	614.67
655.00	608.78
656.00	603.65
657.00	595.96
658.00	594.83
659.00	585.72
660.00	585.08
661.00	579.80
662.00	575.12
663.00	571.36
664.00	570.07
665.00	565.17
666.00	563.55
667.00	558.40
668.00	560.14
669.00	557.55
670.00	553.59
671.00	546.57
672.00	539.47
673.00	537.50
674.00	545.23
675.00	544.04
676.00	545.05
677.00	542.24
678.00	537.30
679.00	537.40
680.00	535.96
681.00	534.95
682.00	534.14
683.00	529.23
684.00	530.45
685.00	527.23
686.00	527.95
687.00	524.23
688.00	521.48
689.00	519.32
690.00	517.00
691.00	513.25
692.00	512.42
693.00	510.18
694.00	504.70
695.00	501.23
696.00	497.37
697.00	492.30
698.00	485.72
699.00	481.01
700.00	472.83
701.00	466.28
702.00	456.90
703.00	454.26
704.00	441.00
705.00	432.22
706.00	424.40
707.00	412.50
708.00	402.93
709.00	392.74
710.00	381.09
711.00	370.47
712.00	357.96
713.00	347.57
714.00	336.25
715.00	325.72
716.00	314.84
717.00	304.71
718.00	294.75
719.00	284.01
720.00	274.88
721.00	266.00
722.00	258.81
723.00	251.26
724.00	242.51
725.00	234.73
726.00	228.93
727.00	221.76
728.00	215.58
729.00	210.01
730.00	205.94
731.00	200.75
732.00	198.15
733.00	192.01
734.00	188.62
735.00	183.71
736.00	180.86
737.00	177.94
738.00	176.70
739.00	173.41
740.00	172.67
741.00	169.81
742.00	167.84
743.00	167.09
744.00	166.84
745.00	165.46
746.00	164.57
747.00	162.73
748.00	161.81
749.00	161.09
750.00	160.80
751.00	159.86
752.00	159.53
753.00	158.49
754.00	158.71
755.00	156.78
756.00	156.43
757.00	156.53
758.00	157.40
759.00	154.84
760.00	154.29
761.00	153.93
762.00	152.60
763.00	153.79
764.00	152.06
765.00	153.25
766.00	152.45
767.00	152.44
768.00	151.92
769.00	151.50
770.00	151.55
771.00	151.29
772.00	150.25
773.00	151.43
774.00	150.80
775.00	151.55
776.00	149.83
777.00	150.20
778.00	150.37
779.00	149.76
780.00	149.88
781.00	150.15
782.00	150.35
783.00	150.32
784.00	149.41
785.00	150.73
786.00	150.51
787.00	150.67
788.00	149.03
789.00	150.49
790.00	150.86
791.00	148.54
792.00	149.61
793.00	149.84
794.00	149.02
795.00	148.64
796.00	149.77
797.00	148.03
798.00	149.34
799.00	148.79
800.00	148.48
801.00	149.28
802.00	147.70
803.00	148.95
804.00	149.56
805.00	148.83
806.00	148.68
807.00	148.75
808.00	147.68
809.00	148.51
810.00	149.45
811.00	148.69
812.00	148.42
813.00	149.41
814.00	148.67
815.00	149.53
816.00	148.58
817.00	148.96
818.00	148.12
819.00	148.31
820.00	147.92
821.00	147.82
822.00	149.10
823.00	148.60
824.00	147.80
825.00	149.45
826.00	148.96
827.00	148.55
828.00	148.95
829.00	148.14
830.00	149.71
831.00	148.81
832.00	148.65
833.00	147.78
834.00	147.77
835.00	148.72
836.00	148.37
837.00	148.14
838.00	148.78
839.00	147.98
840.00	147.89
841.00	148.96
842.00	148.98
843.00	147.01
844.00	148.73
845.00	149.41
846.00	147.85
847.00	147.81
848.00	147.66
849.00	147.93
850.00	156.56
851.00	147.81
852.00	147.44
853.00	148.61
854.00	148.77
855.00	150.14
856.00	148.35
857.00	149.53
858.00	149.66
859.00	148.58
860.00	148.56
861.00	148.52
862.00	147.65
863.00	148.34
864.00	148.02
865.00	147.77
866.00	147.49
867.00	148.49
868.00	149.76
869.00	148.66
870.00	148.47
871.00	148.25
872.00	149.26
873.00	148.77
874.00	148.67
875.00	147.62
876.00	148.04
877.00	147.85
878.00	148.52
879.00	147.37
880.00	148.82
881.00	148.39
882.00	147.26
883.00	148.09
884.00	148.59
885.00	148.00
886.00	147.40
887.00	148.21
888.00	148.21
889.00	147.15
890.00	148.53
891.00	148.64
892.00	149.99
893.00	147.76
894.00	147.94
895.00	148.56
896.00	148.87
897.00	148.77
898.00	147.96
899.00	148.88
900.00	147.60
901.00	149.73
902.00	147.27
903.00	148.36
904.00	147.28
905.00	150.70
906.00	149.54
907.00	148.78
908.00	147.92
909.00	147.74
910.00	149.69
911.00	148.74
912.00	150.20
913.00	147.64
914.00	148.17
915.00	149.52
916.00	148.55
917.00	147.69
918.00	148.58
919.00	149.50
920.00	148.83
921.00	148.41
922.00	147.86
923.00	147.70
924.00	148.32
925.00	151.72
926.00	149.54
927.00	147.17
928.00	149.68
929.00	147.55
930.00	147.94
931.00	149.28
932.00	148.33
933.00	150.53
934.00	148.47
935.00	147.72
936.00	147.88
937.00	148.95
938.00	149.31
939.00	148.46
940.00	148.77
941.00	149.05
942.00	150.41
943.00	148.42
944.00	148.64
945.00	148.49
946.00	148.95
947.00	147.86
948.00	148.01
949.00	147.70
950.00	148.83
951.00	148.80
952.00	148.78
953.00	148.49
954.00	148.01
955.00	147.84
956.00	149.44
957.00	148.59
958.00	148.16
959.00	148.49
960.00	149.94
961.00	148.95
962.00	149.89
963.00	148.00
964.00	148.39
965.00	148.83
966.00	149.16
967.00	148.57
968.00	150.12
969.00	150.84
970.00	148.24
971.00	147.39
972.00	150.27
973.00	148.89
974.00	148.88
975.00	148.13
976.00	148.90
977.00	148.66
978.00	148.28
979.00	148.72
980.00	148.43
981.00	148.34
982.00	149.00
983.00	147.58
984.00	144.88
985.00	148.75
986.00	148.49
987.00	148.69
988.00	149.18
989.00	148.80
990.00	148.15
991.00	148.59
992.00	148.60
993.00	148.99
994.00	147.77
995.00	148.79
996.00	149.98
997.00	149.56
998.00	148.71
999.00	149.04
1000.00	147.73
>>>>>End Processed Spectral Data<<<<<
