SpectraSuite Data File
++++++++++++++++++++++++++++++++++++
Date: Mon Jun 02 11:40:30 PDT 2025
User: Stephen Warren
Dark Spectrum Present: No
Reference Spectrum Present: No
Number of Sampled Component Spectra: 1
Spectrometers: USB2G24357
Integration Time (usec): 48000 (USB2G24357)
Spectra Averaged: 200 (USB2G24357)
Boxcar Smoothing: 0 (USB2G24357)
Correct for Electrical Dark: No (USB2G24357)
Strobe/Lamp Enabled: No (USB2G24357)
Correct for Detector Non-linearity: No (USB2G24357)
Correct for Stray Light: No (USB2G24357)
Number of Pixels in Processed Spectrum: 651
>>>>>Begin Processed Spectral Data<<<<<
350.00	146.69
351.00	147.11
352.00	147.71
353.00	148.13
354.00	147.96
355.00	147.75
356.00	147.82
357.00	147.30
358.00	149.15
359.00	147.94
360.00	147.47
361.00	148.66
362.00	148.03
363.00	147.77
364.00	148.61
365.00	147.95
366.00	148.44
367.00	148.60
368.00	149.06
369.00	149.48
370.00	148.82
371.00	149.20
372.00	149.03
373.00	150.15
374.00	148.98
375.00	148.50
376.00	148.05
377.00	149.27
378.00	149.79
379.00	149.09
380.00	148.81
381.00	149.66
382.00	149.27
383.00	148.88
384.00	148.81
385.00	148.91
386.00	149.58
387.00	149.06
388.00	149.08
389.00	149.66
390.00	148.90
391.00	149.55
392.00	150.46
393.00	151.20
394.00	150.34
395.00	153.24
396.00	151.20
397.00	151.42
398.00	152.17
399.00	152.72
400.00	152.43
401.00	153.05
402.00	153.53
403.00	154.49
404.00	154.10
405.00	154.80
406.00	155.21
407.00	156.26
408.00	156.18
409.00	157.42
410.00	157.52
411.00	157.51
412.00	159.81
413.00	161.27
414.00	162.30
415.00	162.67
416.00	164.65
417.00	164.76
418.00	166.34
419.00	169.14
420.00	169.28
421.00	169.93
422.00	170.58
423.00	170.84
424.00	171.90
425.00	173.59
426.00	174.53
427.00	177.34
428.00	176.61
429.00	178.28
430.00	179.76
431.00	181.57
432.00	184.05
433.00	186.63
434.00	190.24
435.00	192.40
436.00	194.63
437.00	198.43
438.00	201.72
439.00	203.97
440.00	209.07
441.00	210.65
442.00	212.65
443.00	216.83
444.00	218.18
445.00	219.01
446.00	219.98
447.00	221.98
448.00	223.52
449.00	224.22
450.00	225.16
451.00	224.78
452.00	224.71
453.00	228.78
454.00	230.58
455.00	232.68
456.00	236.02
457.00	239.33
458.00	242.01
459.00	244.94
460.00	248.57
461.00	252.77
462.00	258.45
463.00	264.67
464.00	268.46
465.00	272.74
466.00	277.66
467.00	283.66
468.00	287.70
469.00	291.80
470.00	295.71
471.00	298.59
472.00	299.20
473.00	303.47
474.00	305.90
475.00	310.53
476.00	314.64
477.00	318.42
478.00	322.77
479.00	329.32
480.00	333.95
481.00	337.45
482.00	343.47
483.00	350.89
484.00	358.14
485.00	365.90
486.00	372.14
487.00	380.49
488.00	387.87
489.00	396.80
490.00	405.71
491.00	414.76
492.00	426.30
493.00	435.22
494.00	441.85
495.00	450.05
496.00	458.97
497.00	466.85
498.00	473.05
499.00	475.91
500.00	480.54
501.00	482.96
502.00	485.74
503.00	485.98
504.00	487.19
505.00	487.02
506.00	485.61
507.00	486.77
508.00	487.63
509.00	485.99
510.00	485.54
511.00	486.37
512.00	485.87
513.00	485.63
514.00	489.45
515.00	490.62
516.00	493.06
517.00	494.20
518.00	496.78
519.00	503.76
520.00	503.53
521.00	508.74
522.00	512.22
523.00	517.26
524.00	518.32
525.00	524.77
526.00	530.12
527.00	535.03
528.00	540.10
529.00	549.81
530.00	555.69
531.00	560.95
532.00	572.46
533.00	581.52
534.00	590.47
535.00	598.52
536.00	608.45
537.00	612.87
538.00	617.28
539.00	624.85
540.00	626.98
541.00	628.39
542.00	630.32
543.00	630.75
544.00	630.82
545.00	632.66
546.00	630.56
547.00	635.61
548.00	632.38
549.00	633.09
550.00	632.97
551.00	632.73
552.00	630.03
553.00	633.91
554.00	637.12
555.00	640.43
556.00	642.75
557.00	642.79
558.00	643.85
559.00	648.86
560.00	647.62
561.00	650.96
562.00	660.71
563.00	664.66
564.00	669.75
565.00	676.19
566.00	682.66
567.00	686.16
568.00	695.79
569.00	700.40
570.00	713.46
571.00	721.72
572.00	732.14
573.00	739.10
574.00	748.55
575.00	759.71
576.00	766.73
577.00	775.21
578.00	790.63
579.00	793.60
580.00	807.78
581.00	812.66
582.00	820.23
583.00	827.80
584.00	836.24
585.00	835.81
586.00	837.78
587.00	844.22
588.00	843.48
589.00	846.75
590.00	848.48
591.00	845.05
592.00	842.97
593.00	840.58
594.00	840.72
595.00	838.07
596.00	834.32
597.00	835.06
598.00	831.44
599.00	826.51
600.00	827.35
601.00	825.83
602.00	824.69
603.00	825.24
604.00	823.94
605.00	825.58
606.00	821.81
607.00	819.82
608.00	819.84
609.00	821.57
610.00	819.95
611.00	822.36
612.00	827.92
613.00	821.93
614.00	829.02
615.00	825.46
616.00	831.55
617.00	829.88
618.00	834.49
619.00	836.16
620.00	839.59
621.00	842.69
622.00	843.80
623.00	843.70
624.00	848.46
625.00	851.23
626.00	854.32
627.00	859.07
628.00	858.77
629.00	862.17
630.00	861.86
631.00	864.62
632.00	863.37
633.00	863.72
634.00	861.83
635.00	860.89
636.00	855.55
637.00	856.11
638.00	852.74
639.00	847.85
640.00	847.45
641.00	838.20
642.00	831.97
643.00	824.03
644.00	818.44
645.00	811.41
646.00	804.82
647.00	793.74
648.00	784.91
649.00	776.85
650.00	766.29
651.00	759.57
652.00	752.65
653.00	745.83
654.00	738.92
655.00	731.43
656.00	724.30
657.00	715.36
658.00	712.94
659.00	703.12
660.00	700.68
661.00	693.40
662.00	689.24
663.00	682.85
664.00	681.79
665.00	675.88
666.00	673.41
667.00	667.31
668.00	668.65
669.00	665.52
670.00	660.91
671.00	651.50
672.00	642.48
673.00	640.90
674.00	650.39
675.00	648.12
676.00	649.23
677.00	645.92
678.00	640.06
679.00	640.60
680.00	639.47
681.00	637.09
682.00	636.29
683.00	630.61
684.00	632.39
685.00	629.59
686.00	627.34
687.00	624.36
688.00	621.38
689.00	616.10
690.00	615.40
691.00	610.87
692.00	608.15
693.00	606.78
694.00	599.59
695.00	594.88
696.00	590.34
697.00	583.00
698.00	574.68
699.00	568.19
700.00	558.97
701.00	550.46
702.00	538.76
703.00	534.79
704.00	518.32
705.00	507.93
706.00	497.22
707.00	483.82
708.00	470.40
709.00	457.36
710.00	442.93
711.00	429.39
712.00	413.53
713.00	401.31
714.00	387.20
715.00	373.27
716.00	360.75
717.00	346.83
718.00	334.28
719.00	321.41
720.00	309.44
721.00	297.56
722.00	288.58
723.00	278.34
724.00	268.00
725.00	257.95
726.00	250.17
727.00	242.03
728.00	233.30
729.00	226.56
730.00	221.21
731.00	214.50
732.00	210.99
733.00	203.58
734.00	199.34
735.00	193.77
736.00	190.02
737.00	186.02
738.00	184.10
739.00	179.94
740.00	178.81
741.00	175.82
742.00	174.16
743.00	172.37
744.00	171.71
745.00	170.01
746.00	169.16
747.00	167.00
748.00	166.28
749.00	164.55
750.00	164.45
751.00	163.82
752.00	162.14
753.00	161.21
754.00	161.73
755.00	159.22
756.00	158.76
757.00	158.62
758.00	159.41
759.00	156.82
760.00	156.49
761.00	155.51
762.00	154.34
763.00	155.31
764.00	153.85
765.00	154.95
766.00	154.10
767.00	153.45
768.00	153.33
769.00	152.55
770.00	152.45
771.00	152.27
772.00	151.19
773.00	152.36
774.00	151.71
775.00	152.46
776.00	150.70
777.00	150.81
778.00	151.53
779.00	150.51
780.00	150.91
781.00	150.60
782.00	151.40
783.00	153.42
784.00	150.17
785.00	151.52
786.00	151.30
787.00	151.57
788.00	149.56
789.00	150.97
790.00	151.39
791.00	149.01
792.00	149.91
793.00	150.38
794.00	149.21
795.00	148.90
796.00	150.16
797.00	148.38
798.00	149.55
799.00	149.33
800.00	148.97
801.00	149.57
802.00	148.19
803.00	149.31
804.00	149.96
805.00	148.83
806.00	148.53
807.00	148.84
808.00	147.81
809.00	148.99
810.00	149.56
811.00	149.31
812.00	149.24
813.00	149.89
814.00	148.91
815.00	150.11
816.00	148.67
817.00	149.75
818.00	148.49
819.00	148.49
820.00	148.30
821.00	148.03
822.00	149.28
823.00	148.55
824.00	148.00
825.00	149.32
826.00	148.94
827.00	148.41
828.00	149.23
829.00	148.44
830.00	149.71
831.00	149.12
832.00	148.55
833.00	148.73
834.00	147.55
835.00	149.11
836.00	148.52
837.00	148.36
838.00	148.91
839.00	148.27
840.00	148.22
841.00	148.67
842.00	149.30
843.00	147.32
844.00	149.06
845.00	149.30
846.00	148.40
847.00	148.15
848.00	148.39
849.00	148.25
850.00	156.73
851.00	148.44
852.00	147.89
853.00	149.35
854.00	149.38
855.00	150.22
856.00	149.16
857.00	149.63
858.00	150.01
859.00	148.47
860.00	149.01
861.00	148.64
862.00	148.42
863.00	148.61
864.00	148.35
865.00	148.28
866.00	147.88
867.00	148.81
868.00	149.92
869.00	148.52
870.00	148.94
871.00	148.45
872.00	149.80
873.00	149.08
874.00	148.65
875.00	148.02
876.00	147.92
877.00	148.39
878.00	148.90
879.00	147.64
880.00	149.07
881.00	149.11
882.00	147.50
883.00	147.97
884.00	148.82
885.00	147.63
886.00	147.61
887.00	148.53
888.00	148.29
889.00	147.64
890.00	148.77
891.00	148.92
892.00	150.47
893.00	148.28
894.00	147.94
895.00	148.42
896.00	148.93
897.00	148.69
898.00	147.95
899.00	149.01
900.00	147.95
901.00	149.64
902.00	147.50
903.00	148.57
904.00	147.49
905.00	150.61
906.00	149.33
907.00	148.75
908.00	148.14
909.00	147.98
910.00	150.10
911.00	149.30
912.00	150.24
913.00	147.49
914.00	148.26
915.00	149.34
916.00	148.48
917.00	147.80
918.00	148.48
919.00	149.18
920.00	149.24
921.00	148.71
922.00	147.49
923.00	147.61
924.00	148.91
925.00	151.76
926.00	149.31
927.00	147.36
928.00	150.06
929.00	147.66
930.00	148.38
931.00	149.98
932.00	148.66
933.00	150.74
934.00	148.13
935.00	148.28
936.00	147.65
937.00	149.47
938.00	149.68
939.00	148.73
940.00	148.60
941.00	149.49
942.00	150.51
943.00	148.79
944.00	148.78
945.00	148.46
946.00	148.93
947.00	147.95
948.00	148.05
949.00	147.56
950.00	149.06
951.00	148.56
952.00	148.83
953.00	148.26
954.00	148.44
955.00	147.90
956.00	150.22
957.00	148.80
958.00	148.48
959.00	148.38
960.00	150.19
961.00	149.08
962.00	150.04
963.00	148.03
964.00	148.70
965.00	148.90
966.00	149.36
967.00	148.54
968.00	150.83
969.00	150.69
970.00	148.81
971.00	147.49
972.00	150.59
973.00	148.91
974.00	149.00
975.00	148.09
976.00	148.86
977.00	148.82
978.00	148.43
979.00	149.08
980.00	148.53
981.00	148.52
982.00	149.24
983.00	147.25
984.00	144.58
985.00	148.94
986.00	148.64
987.00	148.85
988.00	149.32
989.00	148.79
990.00	148.27
991.00	148.82
992.00	148.87
993.00	149.03
994.00	147.98
995.00	149.06
996.00	150.08
997.00	150.17
998.00	149.05
999.00	149.21
1000.00	148.20
>>>>>End Processed Spectral Data<<<<<
