SpectraSuite Data File
++++++++++++++++++++++++++++++++++++
Date: Mon Jun 02 11:27:52 PDT 2025
User: Stephen Warren
Dark Spectrum Present: No
Reference Spectrum Present: No
Number of Sampled Component Spectra: 1
Spectrometers: USB2G24357
Integration Time (usec): 48000 (USB2G24357)
Spectra Averaged: 200 (USB2G24357)
Boxcar Smoothing: 0 (USB2G24357)
Correct for Electrical Dark: No (USB2G24357)
Strobe/Lamp Enabled: No (USB2G24357)
Correct for Detector Non-linearity: No (USB2G24357)
Correct for Stray Light: No (USB2G24357)
Number of Pixels in Processed Spectrum: 651
>>>>>Begin Processed Spectral Data<<<<<
350.00	146.75
351.00	147.52
352.00	148.00
353.00	148.13
354.00	148.17
355.00	148.19
356.00	147.86
357.00	147.39
358.00	149.40
359.00	148.31
360.00	147.66
361.00	149.01
362.00	148.37
363.00	147.86
364.00	148.77
365.00	148.36
366.00	148.61
367.00	149.15
368.00	149.54
369.00	149.68
370.00	149.12
371.00	149.40
372.00	149.29
373.00	150.48
374.00	149.00
375.00	148.72
376.00	148.37
377.00	149.75
378.00	149.91
379.00	149.84
380.00	149.00
381.00	150.29
382.00	149.20
383.00	149.24
384.00	149.16
385.00	149.43
386.00	149.72
387.00	149.63
388.00	149.59
389.00	150.13
390.00	149.49
391.00	150.04
392.00	150.94
393.00	151.77
394.00	151.40
395.00	154.35
396.00	152.04
397.00	152.55
398.00	153.72
399.00	154.22
400.00	153.99
401.00	154.59
402.00	155.41
403.00	156.28
404.00	156.34
405.00	157.33
406.00	157.49
407.00	158.76
408.00	158.84
409.00	160.17
410.00	160.48
411.00	161.37
412.00	163.58
413.00	165.53
414.00	166.74
415.00	168.36
416.00	170.59
417.00	171.25
418.00	172.78
419.00	176.56
420.00	177.74
421.00	178.21
422.00	179.28
423.00	180.52
424.00	182.14
425.00	184.13
426.00	185.63
427.00	188.82
428.00	189.09
429.00	191.37
430.00	193.73
431.00	195.90
432.00	200.01
433.00	204.03
434.00	208.55
435.00	211.79
436.00	215.77
437.00	220.30
438.00	225.59
439.00	228.70
440.00	236.01
441.00	239.17
442.00	241.77
443.00	247.26
444.00	250.60
445.00	250.00
446.00	252.61
447.00	254.99
448.00	257.30
449.00	258.59
450.00	259.54
451.00	260.34
452.00	260.91
453.00	265.98
454.00	268.39
455.00	271.84
456.00	276.42
457.00	281.77
458.00	285.65
459.00	290.31
460.00	295.89
461.00	302.75
462.00	310.66
463.00	318.87
464.00	323.61
465.00	330.88
466.00	339.39
467.00	346.95
468.00	353.99
469.00	359.32
470.00	366.56
471.00	369.20
472.00	370.50
473.00	376.07
474.00	380.98
475.00	386.76
476.00	393.07
477.00	397.66
478.00	404.97
479.00	412.93
480.00	420.26
481.00	426.05
482.00	434.67
483.00	444.87
484.00	454.97
485.00	466.56
486.00	475.30
487.00	487.28
488.00	498.73
489.00	511.52
490.00	525.23
491.00	538.50
492.00	552.87
493.00	566.88
494.00	576.53
495.00	589.19
496.00	601.19
497.00	613.18
498.00	621.68
499.00	626.72
500.00	633.21
501.00	637.15
502.00	640.07
503.00	641.34
504.00	641.70
505.00	640.92
506.00	640.43
507.00	642.91
508.00	641.48
509.00	639.29
510.00	638.02
511.00	640.79
512.00	639.14
513.00	640.36
514.00	643.87
515.00	648.03
516.00	649.52
517.00	652.84
518.00	656.12
519.00	666.00
520.00	665.26
521.00	673.66
522.00	678.53
523.00	685.11
524.00	687.65
525.00	697.53
526.00	705.39
527.00	711.51
528.00	718.82
529.00	732.26
530.00	740.27
531.00	748.41
532.00	764.44
533.00	778.27
534.00	791.26
535.00	802.89
536.00	816.65
537.00	823.61
538.00	829.98
539.00	841.80
540.00	843.86
541.00	848.01
542.00	848.22
543.00	850.88
544.00	850.90
545.00	852.18
546.00	848.12
547.00	854.29
548.00	851.59
549.00	851.94
550.00	849.65
551.00	850.95
552.00	846.39
553.00	852.64
554.00	857.91
555.00	862.49
556.00	865.73
557.00	865.26
558.00	867.44
559.00	873.42
560.00	871.76
561.00	876.51
562.00	890.65
563.00	897.16
564.00	903.96
565.00	912.69
566.00	923.43
567.00	928.73
568.00	942.64
569.00	948.86
570.00	966.23
571.00	979.53
572.00	993.79
573.00	1003.72
574.00	1018.41
575.00	1034.00
576.00	1044.63
577.00	1057.13
578.00	1078.06
579.00	1083.39
580.00	1103.88
581.00	1109.94
582.00	1120.43
583.00	1131.75
584.00	1141.34
585.00	1140.98
586.00	1144.12
587.00	1153.36
588.00	1153.31
589.00	1158.36
590.00	1160.50
591.00	1155.07
592.00	1151.50
593.00	1147.75
594.00	1145.85
595.00	1143.55
596.00	1140.95
597.00	1139.38
598.00	1133.06
599.00	1126.91
600.00	1127.51
601.00	1125.45
602.00	1123.42
603.00	1125.20
604.00	1122.22
605.00	1120.59
606.00	1118.18
607.00	1115.11
608.00	1114.43
609.00	1120.39
610.00	1115.70
611.00	1118.85
612.00	1126.26
613.00	1116.37
614.00	1127.46
615.00	1122.13
616.00	1131.99
617.00	1130.22
618.00	1134.72
619.00	1137.53
620.00	1140.19
621.00	1146.93
622.00	1147.35
623.00	1147.73
624.00	1153.85
625.00	1159.34
626.00	1160.05
627.00	1166.34
628.00	1166.68
629.00	1173.65
630.00	1172.53
631.00	1174.67
632.00	1174.02
633.00	1174.29
634.00	1169.81
635.00	1170.28
636.00	1164.33
637.00	1160.00
638.00	1158.95
639.00	1151.81
640.00	1149.16
641.00	1135.58
642.00	1126.15
643.00	1115.46
644.00	1104.83
645.00	1098.10
646.00	1087.59
647.00	1071.78
648.00	1058.88
649.00	1044.42
650.00	1031.17
651.00	1021.52
652.00	1013.03
653.00	1002.42
654.00	992.10
655.00	980.00
656.00	971.57
657.00	956.24
658.00	953.04
659.00	938.12
660.00	934.20
661.00	925.79
662.00	918.81
663.00	910.80
664.00	907.58
665.00	898.36
666.00	895.92
667.00	889.15
668.00	887.50
669.00	884.44
670.00	876.49
671.00	864.99
672.00	850.59
673.00	848.77
674.00	862.79
675.00	859.38
676.00	858.79
677.00	855.57
678.00	847.51
679.00	847.95
680.00	845.86
681.00	842.22
682.00	840.33
683.00	832.47
684.00	835.34
685.00	830.30
686.00	828.54
687.00	822.11
688.00	820.12
689.00	814.22
690.00	810.68
691.00	805.59
692.00	801.28
693.00	798.12
694.00	787.50
695.00	781.63
696.00	774.56
697.00	765.08
698.00	753.58
699.00	744.74
700.00	731.36
701.00	717.70
702.00	701.89
703.00	694.17
704.00	672.92
705.00	658.06
706.00	640.79
707.00	623.68
708.00	605.84
709.00	586.71
710.00	566.48
711.00	547.26
712.00	525.74
713.00	506.32
714.00	487.67
715.00	467.32
716.00	450.16
717.00	430.89
718.00	412.69
719.00	395.01
720.00	378.61
721.00	361.95
722.00	347.75
723.00	334.22
724.00	319.51
725.00	305.22
726.00	294.96
727.00	282.59
728.00	270.53
729.00	259.94
730.00	252.58
731.00	242.89
732.00	237.30
733.00	227.42
734.00	220.93
735.00	213.06
736.00	207.65
737.00	202.44
738.00	199.39
739.00	194.12
740.00	191.20
741.00	187.37
742.00	184.99
743.00	182.47
744.00	181.50
745.00	178.87
746.00	177.34
747.00	174.93
748.00	173.67
749.00	171.63
750.00	171.18
751.00	169.82
752.00	168.20
753.00	167.06
754.00	167.37
755.00	164.37
756.00	163.99
757.00	162.99
758.00	163.75
759.00	160.71
760.00	160.27
761.00	159.10
762.00	157.44
763.00	158.49
764.00	156.77
765.00	157.50
766.00	156.10
767.00	155.75
768.00	155.11
769.00	154.31
770.00	154.29
771.00	154.45
772.00	153.09
773.00	153.65
774.00	153.76
775.00	154.22
776.00	152.45
777.00	152.16
778.00	152.97
779.00	152.00
780.00	152.38
781.00	152.05
782.00	152.73
783.00	154.51
784.00	151.08
785.00	153.08
786.00	152.56
787.00	152.88
788.00	151.06
789.00	151.79
790.00	152.37
791.00	150.19
792.00	150.71
793.00	151.11
794.00	150.31
795.00	149.54
796.00	151.10
797.00	149.36
798.00	150.50
799.00	149.98
800.00	150.00
801.00	150.02
802.00	148.98
803.00	149.80
804.00	150.34
805.00	150.00
806.00	149.62
807.00	149.45
808.00	148.20
809.00	149.43
810.00	150.00
811.00	149.71
812.00	149.34
813.00	150.29
814.00	149.53
815.00	150.59
816.00	149.23
817.00	150.24
818.00	148.95
819.00	148.35
820.00	148.59
821.00	148.64
822.00	149.87
823.00	149.00
824.00	148.36
825.00	149.84
826.00	149.40
827.00	149.06
828.00	149.85
829.00	148.61
830.00	150.35
831.00	149.72
832.00	149.03
833.00	149.14
834.00	147.87
835.00	149.01
836.00	149.05
837.00	148.61
838.00	149.23
839.00	149.00
840.00	148.93
841.00	149.14
842.00	149.25
843.00	147.81
844.00	149.64
845.00	149.56
846.00	148.56
847.00	148.40
848.00	148.79
849.00	148.95
850.00	157.39
851.00	148.51
852.00	147.89
853.00	149.20
854.00	149.93
855.00	150.88
856.00	149.35
857.00	149.85
858.00	150.18
859.00	148.75
860.00	149.17
861.00	149.42
862.00	148.43
863.00	148.96
864.00	148.88
865.00	148.65
866.00	148.18
867.00	149.05
868.00	150.23
869.00	149.09
870.00	149.28
871.00	148.46
872.00	149.99
873.00	149.36
874.00	148.86
875.00	148.44
876.00	148.51
877.00	148.65
878.00	148.74
879.00	147.95
880.00	149.39
881.00	149.13
882.00	147.96
883.00	148.30
884.00	149.07
885.00	148.47
886.00	147.87
887.00	148.67
888.00	148.50
889.00	147.47
890.00	148.83
891.00	148.76
892.00	150.98
893.00	148.60
894.00	148.57
895.00	148.94
896.00	149.33
897.00	148.91
898.00	148.18
899.00	149.46
900.00	148.18
901.00	149.93
902.00	147.40
903.00	148.79
904.00	148.09
905.00	150.85
906.00	149.48
907.00	148.89
908.00	148.59
909.00	147.66
910.00	149.71
911.00	149.24
912.00	150.69
913.00	148.05
914.00	147.93
915.00	149.38
916.00	148.64
917.00	148.06
918.00	148.80
919.00	149.57
920.00	148.94
921.00	148.88
922.00	147.83
923.00	147.96
924.00	149.17
925.00	152.08
926.00	149.84
927.00	147.96
928.00	149.97
929.00	147.59
930.00	148.55
931.00	150.03
932.00	148.34
933.00	151.08
934.00	148.62
935.00	148.10
936.00	148.26
937.00	149.68
938.00	149.77
939.00	148.60
940.00	148.54
941.00	149.44
942.00	150.54
943.00	148.96
944.00	148.86
945.00	148.95
946.00	149.17
947.00	147.96
948.00	148.28
949.00	148.10
950.00	149.14
951.00	149.27
952.00	148.98
953.00	148.23
954.00	148.79
955.00	148.33
956.00	149.85
957.00	148.90
958.00	148.77
959.00	148.27
960.00	149.89
961.00	148.82
962.00	150.04
963.00	148.21
964.00	148.87
965.00	148.68
966.00	149.19
967.00	148.65
968.00	150.54
969.00	150.85
970.00	148.77
971.00	147.90
972.00	150.76
973.00	149.00
974.00	149.24
975.00	148.20
976.00	149.27
977.00	148.26
978.00	148.55
979.00	148.97
980.00	148.97
981.00	148.05
982.00	149.26
983.00	147.69
984.00	144.95
985.00	148.96
986.00	148.49
987.00	149.14
988.00	149.40
989.00	148.89
990.00	148.86
991.00	148.68
992.00	148.96
993.00	148.84
994.00	148.06
995.00	149.36
996.00	150.46
997.00	150.04
998.00	149.35
999.00	149.58
1000.00	148.22
>>>>>End Processed Spectral Data<<<<<
