SpectraSuite Data File
++++++++++++++++++++++++++++++++++++
Date: Tue Aug 04 11:08:56 PDT 2026
User: Stephen Warren
Dark Spectrum Present: No
Reference Spectrum Present: No
Number of Sampled Component Spectra: 1
Spectrometers: USB2G24357
Integration Time (usec): 48000 (USB2G24357)
Spectra Averaged: 200 (USB2G24357)
Boxcar Smoothing: 0 (USB2G24357)
Correct for Electrical Dark: No (USB2G24357)
Strobe/Lamp Enabled: No (USB2G24357)
Correct for Detector Non-linearity: No (USB2G24357)
Correct for Stray Light: No (USB2G24357)
Number of Pixels in Processed Spectrum: 651
>>>>>Begin Processed Spectral Data<<<<<
350.00	165.42
351.00	166.09
352.00	166.67
353.00	167.27
354.00	166.73
355.00	167.06
356.00	165.99
357.00	166.11
358.00	168.04
359.00	166.77
360.00	166.73
361.00	167.29
362.00	167.02
363.00	166.49
364.00	167.11
365.00	166.95
366.00	167.23
367.00	168.27
368.00	168.01
369.00	167.85
370.00	167.59
371.00	167.85
372.00	167.74
373.00	168.69
374.00	167.55
375.00	167.10
376.00	167.05
377.00	168.12
378.00	168.44
379.00	167.75
380.00	167.20
381.00	168.35
382.00	167.66
383.00	167.40
384.00	167.70
385.00	167.90
386.00	168.26
387.00	167.89
388.00	167.68
389.00	168.25
390.00	167.69
391.00	168.07
392.00	168.48
393.00	169.32
394.00	168.32
395.00	170.46
396.00	167.65
397.00	167.70
398.00	167.98
399.00	167.98
400.00	167.83
401.00	167.69
402.00	168.04
403.00	168.58
404.00	167.86
405.00	168.36
406.00	168.41
407.00	168.48
408.00	168.10
409.00	169.03
410.00	168.08
411.00	168.07
412.00	168.76
413.00	169.32
414.00	168.93
415.00	168.81
416.00	169.31
417.00	168.37
418.00	168.39
419.00	170.30
420.00	169.19
421.00	169.94
422.00	168.60
423.00	168.57
424.00	168.51
425.00	169.09
426.00	169.33
427.00	169.69
428.00	168.81
429.00	168.94
430.00	169.13
431.00	168.46
432.00	169.00
433.00	169.42
434.00	170.00
435.00	169.45
436.00	169.47
437.00	169.95
438.00	169.85
439.00	170.49
440.00	170.21
441.00	169.47
442.00	170.27
443.00	171.30
444.00	170.14
445.00	170.65
446.00	170.01
447.00	169.91
448.00	170.68
449.00	171.81
450.00	170.98
451.00	170.02
452.00	170.38
453.00	170.49
454.00	170.64
455.00	171.06
456.00	171.22
457.00	172.02
458.00	171.71
459.00	171.96
460.00	171.46
461.00	171.97
462.00	172.42
463.00	172.12
464.00	173.11
465.00	173.11
466.00	172.81
467.00	174.77
468.00	173.94
469.00	174.15
470.00	174.37
471.00	173.68
472.00	174.06
473.00	174.33
474.00	174.87
475.00	175.44
476.00	174.92
477.00	175.20
478.00	175.50
479.00	176.42
480.00	176.12
481.00	175.79
482.00	176.60
483.00	176.45
484.00	177.71
485.00	178.40
486.00	178.21
487.00	178.03
488.00	177.76
489.00	178.75
490.00	179.79
491.00	179.70
492.00	180.99
493.00	181.51
494.00	182.11
495.00	181.81
496.00	182.76
497.00	183.89
498.00	184.82
499.00	183.96
500.00	184.54
501.00	183.66
502.00	184.38
503.00	184.57
504.00	185.62
505.00	184.72
506.00	184.80
507.00	185.70
508.00	187.29
509.00	185.28
510.00	185.94
511.00	185.31
512.00	185.10
513.00	185.90
514.00	186.00
515.00	185.73
516.00	185.76
517.00	186.26
518.00	185.28
519.00	187.55
520.00	187.38
521.00	186.83
522.00	187.63
523.00	188.22
524.00	187.98
525.00	188.36
526.00	188.36
527.00	189.10
528.00	189.73
529.00	191.08
530.00	189.99
531.00	190.72
532.00	191.41
533.00	191.65
534.00	192.51
535.00	194.03
536.00	193.47
537.00	194.00
538.00	193.38
539.00	195.31
540.00	195.95
541.00	195.04
542.00	195.27
543.00	196.06
544.00	194.55
545.00	195.94
546.00	196.07
547.00	199.64
548.00	197.32
549.00	195.98
550.00	197.53
551.00	197.41
552.00	196.15
553.00	196.16
554.00	197.12
555.00	198.02
556.00	198.34
557.00	197.13
558.00	197.48
559.00	199.07
560.00	200.32
561.00	198.51
562.00	199.42
563.00	200.45
564.00	200.24
565.00	201.48
566.00	201.37
567.00	202.06
568.00	203.01
569.00	202.92
570.00	204.58
571.00	204.33
572.00	205.65
573.00	205.49
574.00	206.10
575.00	207.31
576.00	207.65
577.00	207.11
578.00	210.54
579.00	210.20
580.00	212.00
581.00	212.03
582.00	211.75
583.00	212.57
584.00	214.50
585.00	213.69
586.00	214.49
587.00	214.98
588.00	214.93
589.00	215.45
590.00	216.00
591.00	215.96
592.00	216.23
593.00	215.35
594.00	216.23
595.00	214.94
596.00	214.55
597.00	216.16
598.00	216.06
599.00	215.67
600.00	215.50
601.00	215.19
602.00	215.52
603.00	216.07
604.00	215.92
605.00	217.19
606.00	216.81
607.00	214.86
608.00	216.65
609.00	216.10
610.00	215.87
611.00	216.85
612.00	217.17
613.00	216.67
614.00	217.06
615.00	216.75
616.00	218.16
617.00	216.84
618.00	219.00
619.00	218.22
620.00	218.35
621.00	219.66
622.00	219.24
623.00	218.92
624.00	220.24
625.00	221.36
626.00	220.99
627.00	223.23
628.00	221.56
629.00	221.20
630.00	221.22
631.00	222.96
632.00	222.65
633.00	222.18
634.00	223.12
635.00	223.84
636.00	222.72
637.00	223.28
638.00	223.59
639.00	222.88
640.00	222.02
641.00	223.45
642.00	221.97
643.00	222.15
644.00	222.16
645.00	222.69
646.00	221.88
647.00	221.39
648.00	219.78
649.00	219.83
650.00	219.07
651.00	218.44
652.00	217.86
653.00	218.61
654.00	218.41
655.00	217.29
656.00	216.89
657.00	216.14
658.00	218.17
659.00	214.89
660.00	215.22
661.00	214.23
662.00	213.57
663.00	213.12
664.00	213.87
665.00	213.61
666.00	213.04
667.00	211.90
668.00	214.69
669.00	211.86
670.00	211.39
671.00	210.74
672.00	210.16
673.00	209.61
674.00	210.39
675.00	210.03
676.00	210.59
677.00	209.65
678.00	208.20
679.00	208.26
680.00	207.86
681.00	209.37
682.00	208.87
683.00	207.09
684.00	207.17
685.00	206.45
686.00	207.57
687.00	206.47
688.00	205.84
689.00	204.39
690.00	205.36
691.00	203.82
692.00	204.22
693.00	204.89
694.00	203.73
695.00	202.84
696.00	202.68
697.00	202.47
698.00	201.69
699.00	201.57
700.00	201.06
701.00	200.42
702.00	199.07
703.00	203.43
704.00	197.76
705.00	197.74
706.00	198.14
707.00	195.42
708.00	195.15
709.00	194.18
710.00	192.96
711.00	191.88
712.00	190.64
713.00	189.95
714.00	188.66
715.00	187.83
716.00	187.79
717.00	186.09
718.00	185.49
719.00	183.02
720.00	182.35
721.00	181.30
722.00	181.49
723.00	180.79
724.00	179.20
725.00	178.18
726.00	177.92
727.00	176.52
728.00	175.70
729.00	174.59
730.00	175.24
731.00	173.64
732.00	175.22
733.00	172.65
734.00	172.77
735.00	171.58
736.00	170.40
737.00	170.38
738.00	170.77
739.00	169.54
740.00	170.36
741.00	169.04
742.00	169.10
743.00	169.11
744.00	169.33
745.00	168.91
746.00	169.36
747.00	168.59
748.00	168.32
749.00	167.95
750.00	168.38
751.00	168.66
752.00	168.44
753.00	168.36
754.00	169.29
755.00	167.56
756.00	167.97
757.00	168.22
758.00	169.09
759.00	167.00
760.00	167.60
761.00	167.73
762.00	166.60
763.00	167.94
764.00	166.99
765.00	168.89
766.00	167.89
767.00	167.60
768.00	167.38
769.00	167.01
770.00	167.28
771.00	167.16
772.00	166.48
773.00	167.60
774.00	167.68
775.00	167.92
776.00	166.82
777.00	167.32
778.00	167.48
779.00	166.55
780.00	167.07
781.00	166.99
782.00	167.45
783.00	167.53
784.00	166.75
785.00	168.35
786.00	167.73
787.00	168.69
788.00	166.96
789.00	167.58
790.00	168.81
791.00	166.62
792.00	167.33
793.00	167.70
794.00	167.34
795.00	166.48
796.00	168.45
797.00	166.72
798.00	167.87
799.00	167.43
800.00	167.16
801.00	168.13
802.00	166.81
803.00	167.46
804.00	168.01
805.00	167.51
806.00	167.23
807.00	167.19
808.00	166.12
809.00	167.26
810.00	167.78
811.00	167.46
812.00	167.00
813.00	168.49
814.00	167.15
815.00	168.23
816.00	167.48
817.00	168.04
818.00	166.98
819.00	167.05
820.00	167.18
821.00	166.94
822.00	167.98
823.00	166.99
824.00	166.84
825.00	167.87
826.00	167.83
827.00	167.85
828.00	168.35
829.00	167.05
830.00	168.16
831.00	167.46
832.00	167.33
833.00	166.94
834.00	166.41
835.00	167.85
836.00	167.15
837.00	167.08
838.00	167.49
839.00	167.32
840.00	166.98
841.00	167.47
842.00	167.82
843.00	166.18
844.00	168.06
845.00	167.81
846.00	167.22
847.00	166.55
848.00	166.97
849.00	167.06
850.00	175.17
851.00	166.83
852.00	166.37
853.00	167.99
854.00	167.97
855.00	169.05
856.00	167.73
857.00	168.43
858.00	168.78
859.00	167.18
860.00	167.63
861.00	167.32
862.00	167.16
863.00	167.07
864.00	167.24
865.00	166.87
866.00	166.79
867.00	167.97
868.00	169.09
869.00	167.51
870.00	168.00
871.00	167.38
872.00	168.74
873.00	167.82
874.00	167.38
875.00	166.87
876.00	166.87
877.00	167.24
878.00	167.77
879.00	166.26
880.00	167.33
881.00	167.74
882.00	166.47
883.00	166.79
884.00	167.86
885.00	166.72
886.00	166.05
887.00	167.46
888.00	167.23
889.00	166.36
890.00	167.87
891.00	167.75
892.00	169.17
893.00	167.01
894.00	167.23
895.00	168.15
896.00	167.86
897.00	167.76
898.00	166.94
899.00	168.07
900.00	167.01
901.00	168.59
902.00	166.42
903.00	167.72
904.00	166.93
905.00	169.65
906.00	168.63
907.00	167.51
908.00	167.33
909.00	166.81
910.00	169.08
911.00	168.41
912.00	169.05
913.00	166.84
914.00	166.98
915.00	168.55
916.00	167.75
917.00	166.74
918.00	167.21
919.00	169.08
920.00	167.72
921.00	167.41
922.00	166.99
923.00	166.67
924.00	168.18
925.00	170.65
926.00	168.58
927.00	166.85
928.00	168.98
929.00	166.51
930.00	167.46
931.00	168.70
932.00	167.74
933.00	169.91
934.00	167.33
935.00	167.10
936.00	167.18
937.00	168.41
938.00	168.64
939.00	167.54
940.00	167.61
941.00	167.96
942.00	169.60
943.00	167.78
944.00	167.89
945.00	167.37
946.00	168.26
947.00	167.02
948.00	166.95
949.00	166.60
950.00	168.05
951.00	167.38
952.00	167.87
953.00	167.43
954.00	167.82
955.00	167.34
956.00	168.70
957.00	167.74
958.00	167.67
959.00	167.83
960.00	168.91
961.00	168.18
962.00	168.95
963.00	167.45
964.00	167.97
965.00	167.71
966.00	168.12
967.00	167.38
968.00	169.39
969.00	169.72
970.00	167.50
971.00	166.85
972.00	169.42
973.00	167.98
974.00	168.21
975.00	167.00
976.00	168.14
977.00	167.50
978.00	167.62
979.00	167.91
980.00	167.62
981.00	167.23
982.00	168.07
983.00	166.84
984.00	164.08
985.00	167.51
986.00	167.22
987.00	168.32
988.00	168.30
989.00	167.60
990.00	168.02
991.00	167.89
992.00	167.75
993.00	168.09
994.00	166.72
995.00	167.95
996.00	169.50
997.00	168.92
998.00	167.92
999.00	168.75
1000.00	167.53
>>>>>End Processed Spectral Data<<<<<
