SpectraSuite Data File
++++++++++++++++++++++++++++++++++++
Date: Tue Aug 04 12:58:26 PDT 2026
User: Stephen Warren
Dark Spectrum Present: No
Reference Spectrum Present: No
Number of Sampled Component Spectra: 1
Spectrometers: USB2G24357
Integration Time (usec): 48000 (USB2G24357)
Spectra Averaged: 200 (USB2G24357)
Boxcar Smoothing: 0 (USB2G24357)
Correct for Electrical Dark: No (USB2G24357)
Strobe/Lamp Enabled: No (USB2G24357)
Correct for Detector Non-linearity: No (USB2G24357)
Correct for Stray Light: No (USB2G24357)
Number of Pixels in Processed Spectrum: 651
>>>>>Begin Processed Spectral Data<<<<<
350.00	155.51
351.00	156.47
352.00	157.02
353.00	157.54
354.00	157.61
355.00	157.66
356.00	156.73
357.00	156.53
358.00	158.26
359.00	157.42
360.00	156.88
361.00	158.06
362.00	157.23
363.00	156.88
364.00	157.65
365.00	157.40
366.00	157.96
367.00	158.67
368.00	158.42
369.00	158.44
370.00	157.77
371.00	158.33
372.00	158.23
373.00	159.61
374.00	157.97
375.00	157.59
376.00	157.14
377.00	158.74
378.00	159.14
379.00	158.33
380.00	157.59
381.00	158.93
382.00	157.93
383.00	157.66
384.00	158.26
385.00	157.90
386.00	158.45
387.00	158.27
388.00	157.90
389.00	158.52
390.00	157.90
391.00	158.04
392.00	158.61
393.00	159.36
394.00	158.87
395.00	161.79
396.00	158.38
397.00	157.78
398.00	158.22
399.00	158.59
400.00	158.25
401.00	158.02
402.00	158.18
403.00	158.21
404.00	157.76
405.00	158.57
406.00	158.44
407.00	159.00
408.00	158.83
409.00	159.42
410.00	158.15
411.00	157.70
412.00	158.79
413.00	159.31
414.00	159.37
415.00	158.91
416.00	159.64
417.00	158.86
418.00	158.43
419.00	160.14
420.00	159.60
421.00	159.43
422.00	158.56
423.00	158.45
424.00	158.17
425.00	158.77
426.00	158.64
427.00	159.58
428.00	158.40
429.00	158.18
430.00	158.12
431.00	158.00
432.00	158.10
433.00	158.54
434.00	159.28
435.00	158.70
436.00	158.73
437.00	159.02
438.00	158.66
439.00	158.93
440.00	158.20
441.00	157.50
442.00	158.30
443.00	159.40
444.00	158.26
445.00	158.16
446.00	157.89
447.00	158.09
448.00	158.26
449.00	159.58
450.00	158.88
451.00	157.86
452.00	157.92
453.00	157.68
454.00	158.07
455.00	158.45
456.00	158.17
457.00	158.97
458.00	158.34
459.00	158.37
460.00	157.54
461.00	157.96
462.00	158.58
463.00	158.20
464.00	159.29
465.00	158.46
466.00	157.79
467.00	159.72
468.00	158.55
469.00	158.61
470.00	158.68
471.00	157.78
472.00	157.96
473.00	158.32
474.00	158.63
475.00	158.74
476.00	158.34
477.00	158.74
478.00	158.22
479.00	159.12
480.00	158.47
481.00	157.73
482.00	158.37
483.00	157.49
484.00	158.64
485.00	159.29
486.00	158.47
487.00	158.12
488.00	156.97
489.00	158.45
490.00	158.67
491.00	157.79
492.00	158.84
493.00	158.74
494.00	159.21
495.00	157.91
496.00	158.54
497.00	159.37
498.00	159.45
499.00	158.63
500.00	158.70
501.00	157.82
502.00	157.96
503.00	158.50
504.00	159.19
505.00	158.62
506.00	158.75
507.00	159.21
508.00	161.52
509.00	158.94
510.00	159.66
511.00	158.44
512.00	158.95
513.00	159.23
514.00	159.11
515.00	158.79
516.00	158.94
517.00	159.24
518.00	157.75
519.00	159.99
520.00	159.10
521.00	158.30
522.00	158.48
523.00	158.86
524.00	158.57
525.00	158.52
526.00	158.54
527.00	158.89
528.00	159.33
529.00	160.03
530.00	158.55
531.00	158.81
532.00	158.92
533.00	159.04
534.00	159.29
535.00	160.25
536.00	158.45
537.00	159.29
538.00	158.76
539.00	159.86
540.00	159.65
541.00	158.80
542.00	158.85
543.00	158.97
544.00	157.93
545.00	159.11
546.00	159.52
547.00	162.56
548.00	159.88
549.00	158.51
550.00	159.84
551.00	159.90
552.00	158.57
553.00	158.88
554.00	158.83
555.00	159.65
556.00	159.81
557.00	158.96
558.00	159.10
559.00	160.29
560.00	161.22
561.00	158.64
562.00	159.99
563.00	159.62
564.00	159.73
565.00	160.95
566.00	159.18
567.00	160.29
568.00	159.62
569.00	160.06
570.00	161.06
571.00	159.85
572.00	160.23
573.00	159.42
574.00	160.01
575.00	160.23
576.00	159.63
577.00	159.02
578.00	161.31
579.00	160.19
580.00	161.11
581.00	160.08
582.00	159.94
583.00	160.39
584.00	161.57
585.00	161.14
586.00	161.07
587.00	160.67
588.00	160.51
589.00	160.78
590.00	161.16
591.00	161.30
592.00	161.85
593.00	160.15
594.00	161.67
595.00	160.84
596.00	160.16
597.00	161.38
598.00	162.00
599.00	162.10
600.00	161.01
601.00	161.04
602.00	162.01
603.00	162.14
604.00	161.84
605.00	162.79
606.00	162.70
607.00	161.23
608.00	162.88
609.00	161.99
610.00	161.83
611.00	162.23
612.00	161.85
613.00	161.48
614.00	161.52
615.00	161.45
616.00	162.97
617.00	161.36
618.00	162.81
619.00	162.13
620.00	161.32
621.00	162.63
622.00	161.78
623.00	161.13
624.00	162.04
625.00	162.91
626.00	162.35
627.00	164.29
628.00	162.29
629.00	161.76
630.00	161.48
631.00	162.87
632.00	162.40
633.00	161.56
634.00	162.50
635.00	163.23
636.00	161.80
637.00	162.97
638.00	163.27
639.00	162.63
640.00	161.81
641.00	163.24
642.00	161.98
643.00	162.60
644.00	162.33
645.00	163.14
646.00	162.69
647.00	163.07
648.00	162.58
649.00	162.84
650.00	162.13
651.00	162.01
652.00	161.69
653.00	162.40
654.00	162.57
655.00	162.97
656.00	162.42
657.00	162.72
658.00	164.31
659.00	161.55
660.00	162.69
661.00	162.00
662.00	161.78
663.00	162.04
664.00	162.78
665.00	162.87
666.00	162.29
667.00	161.71
668.00	163.80
669.00	161.83
670.00	162.32
671.00	162.22
672.00	162.42
673.00	161.88
674.00	162.86
675.00	162.67
676.00	163.09
677.00	162.04
678.00	161.67
679.00	161.69
680.00	161.47
681.00	162.99
682.00	163.14
683.00	161.34
684.00	162.11
685.00	161.74
686.00	162.65
687.00	162.00
688.00	161.31
689.00	161.08
690.00	161.93
691.00	160.99
692.00	161.22
693.00	162.03
694.00	161.24
695.00	160.93
696.00	161.44
697.00	161.82
698.00	161.41
699.00	160.97
700.00	161.38
701.00	161.64
702.00	160.57
703.00	165.56
704.00	160.74
705.00	160.81
706.00	162.08
707.00	160.11
708.00	160.68
709.00	160.68
710.00	160.39
711.00	160.76
712.00	159.43
713.00	159.81
714.00	159.33
715.00	160.02
716.00	160.48
717.00	159.84
718.00	159.89
719.00	159.02
720.00	159.09
721.00	159.17
722.00	159.99
723.00	160.05
724.00	159.26
725.00	158.82
726.00	159.40
727.00	158.87
728.00	158.29
729.00	157.47
730.00	158.95
731.00	157.99
732.00	160.47
733.00	158.86
734.00	158.96
735.00	158.32
736.00	158.10
737.00	157.31
738.00	158.33
739.00	157.61
740.00	158.52
741.00	157.61
742.00	157.72
743.00	158.00
744.00	158.67
745.00	158.53
746.00	158.50
747.00	157.56
748.00	157.58
749.00	157.28
750.00	158.17
751.00	158.24
752.00	157.90
753.00	157.42
754.00	158.77
755.00	157.13
756.00	157.74
757.00	157.59
758.00	159.13
759.00	157.30
760.00	157.45
761.00	157.67
762.00	156.58
763.00	158.33
764.00	157.18
765.00	158.67
766.00	157.82
767.00	157.99
768.00	157.75
769.00	157.32
770.00	157.54
771.00	157.55
772.00	156.61
773.00	158.16
774.00	157.91
775.00	158.44
776.00	156.87
777.00	157.31
778.00	158.02
779.00	156.72
780.00	157.58
781.00	157.18
782.00	157.94
783.00	157.63
784.00	157.06
785.00	158.64
786.00	158.07
787.00	158.63
788.00	157.35
789.00	158.09
790.00	159.00
791.00	157.03
792.00	157.84
793.00	158.03
794.00	157.72
795.00	156.68
796.00	158.47
797.00	156.78
798.00	158.14
799.00	157.45
800.00	157.47
801.00	158.24
802.00	157.05
803.00	157.72
804.00	158.37
805.00	158.00
806.00	157.73
807.00	157.61
808.00	156.70
809.00	157.59
810.00	158.64
811.00	157.72
812.00	157.86
813.00	158.93
814.00	158.18
815.00	159.10
816.00	158.02
817.00	158.25
818.00	157.27
819.00	157.59
820.00	157.38
821.00	157.08
822.00	158.30
823.00	157.97
824.00	157.36
825.00	158.29
826.00	158.16
827.00	158.31
828.00	158.39
829.00	157.49
830.00	159.11
831.00	158.52
832.00	157.80
833.00	157.34
834.00	156.92
835.00	158.08
836.00	157.70
837.00	157.26
838.00	158.17
839.00	157.52
840.00	157.53
841.00	158.35
842.00	158.56
843.00	156.56
844.00	158.09
845.00	158.45
846.00	157.55
847.00	157.18
848.00	157.47
849.00	157.46
850.00	166.39
851.00	157.28
852.00	156.91
853.00	158.32
854.00	158.62
855.00	159.92
856.00	158.16
857.00	158.95
858.00	159.49
859.00	157.62
860.00	158.47
861.00	158.00
862.00	157.61
863.00	157.54
864.00	157.88
865.00	157.72
866.00	157.03
867.00	157.86
868.00	159.52
869.00	158.52
870.00	158.11
871.00	158.03
872.00	159.42
873.00	158.33
874.00	157.98
875.00	157.18
876.00	157.27
877.00	157.70
878.00	158.21
879.00	156.82
880.00	158.38
881.00	158.37
882.00	156.80
883.00	157.58
884.00	158.38
885.00	157.83
886.00	156.68
887.00	157.79
888.00	157.46
889.00	156.74
890.00	158.55
891.00	158.38
892.00	159.99
893.00	157.44
894.00	157.89
895.00	158.63
896.00	158.27
897.00	158.25
898.00	157.74
899.00	158.53
900.00	157.37
901.00	159.28
902.00	156.56
903.00	157.87
904.00	157.25
905.00	160.37
906.00	159.22
907.00	158.40
908.00	157.53
909.00	157.75
910.00	159.67
911.00	159.32
912.00	160.23
913.00	157.42
914.00	157.74
915.00	158.98
916.00	158.21
917.00	157.42
918.00	158.02
919.00	163.91
920.00	158.94
921.00	158.50
922.00	157.45
923.00	157.43
924.00	158.73
925.00	161.61
926.00	159.12
927.00	157.51
928.00	159.43
929.00	156.79
930.00	157.68
931.00	159.40
932.00	158.29
933.00	160.67
934.00	157.74
935.00	157.83
936.00	157.85
937.00	159.02
938.00	159.43
939.00	157.93
940.00	157.98
941.00	158.58
942.00	160.49
943.00	158.78
944.00	158.56
945.00	158.06
946.00	158.71
947.00	157.93
948.00	158.13
949.00	157.34
950.00	158.46
951.00	158.48
952.00	158.41
953.00	158.21
954.00	158.21
955.00	157.40
956.00	159.44
957.00	158.56
958.00	158.00
959.00	158.72
960.00	159.42
961.00	158.55
962.00	159.79
963.00	157.95
964.00	158.76
965.00	158.51
966.00	158.98
967.00	158.11
968.00	160.42
969.00	160.27
970.00	158.14
971.00	157.59
972.00	160.09
973.00	158.60
974.00	158.88
975.00	157.91
976.00	158.95
977.00	158.29
978.00	158.14
979.00	158.50
980.00	158.74
981.00	158.05
982.00	159.17
983.00	157.32
984.00	154.88
985.00	158.24
986.00	158.47
987.00	159.03
988.00	159.30
989.00	158.54
990.00	157.93
991.00	158.99
992.00	158.39
993.00	158.50
994.00	157.69
995.00	158.50
996.00	160.21
997.00	159.81
998.00	158.60
999.00	159.49
1000.00	157.82
>>>>>End Processed Spectral Data<<<<<
