SpectraSuite Data File
++++++++++++++++++++++++++++++++++++
Date: Tue Aug 04 10:41:50 PDT 2026
User: Stephen Warren
Dark Spectrum Present: No
Reference Spectrum Present: No
Number of Sampled Component Spectra: 1
Spectrometers: USB2G24357
Integration Time (usec): 48000 (USB2G24357)
Spectra Averaged: 200 (USB2G24357)
Boxcar Smoothing: 0 (USB2G24357)
Correct for Electrical Dark: No (USB2G24357)
Strobe/Lamp Enabled: No (USB2G24357)
Correct for Detector Non-linearity: No (USB2G24357)
Correct for Stray Light: No (USB2G24357)
Number of Pixels in Processed Spectrum: 651
>>>>>Begin Processed Spectral Data<<<<<
350.00	167.21
351.00	167.03
352.00	168.07
353.00	168.53
354.00	167.98
355.00	168.36
356.00	167.71
357.00	167.95
358.00	169.53
359.00	168.28
360.00	167.92
361.00	169.14
362.00	168.15
363.00	167.76
364.00	168.76
365.00	168.56
366.00	168.50
367.00	169.51
368.00	169.03
369.00	169.49
370.00	168.99
371.00	168.97
372.00	169.41
373.00	170.16
374.00	168.84
375.00	168.31
376.00	168.44
377.00	169.42
378.00	169.62
379.00	169.57
380.00	168.50
381.00	169.63
382.00	169.20
383.00	168.38
384.00	169.15
385.00	169.05
386.00	168.81
387.00	169.51
388.00	168.72
389.00	169.63
390.00	168.68
391.00	169.19
392.00	169.82
393.00	170.33
394.00	169.77
395.00	172.06
396.00	169.18
397.00	169.19
398.00	169.53
399.00	169.41
400.00	169.35
401.00	169.02
402.00	169.82
403.00	170.05
404.00	168.91
405.00	169.17
406.00	169.61
407.00	169.93
408.00	169.93
409.00	170.14
410.00	169.81
411.00	169.37
412.00	170.52
413.00	170.51
414.00	170.35
415.00	170.23
416.00	170.78
417.00	170.27
418.00	170.23
419.00	172.04
420.00	170.86
421.00	171.30
422.00	170.24
423.00	170.29
424.00	170.44
425.00	171.02
426.00	170.18
427.00	171.61
428.00	170.86
429.00	170.80
430.00	171.00
431.00	170.50
432.00	170.77
433.00	171.54
434.00	171.78
435.00	171.68
436.00	171.30
437.00	171.92
438.00	172.03
439.00	172.16
440.00	172.13
441.00	171.41
442.00	172.04
443.00	173.76
444.00	172.26
445.00	173.00
446.00	172.09
447.00	172.23
448.00	172.29
449.00	173.62
450.00	172.92
451.00	172.48
452.00	172.74
453.00	172.61
454.00	173.28
455.00	173.28
456.00	173.66
457.00	174.58
458.00	174.29
459.00	174.35
460.00	174.27
461.00	174.41
462.00	175.29
463.00	175.08
464.00	175.85
465.00	176.31
466.00	175.51
467.00	177.57
468.00	176.51
469.00	176.58
470.00	177.30
471.00	176.89
472.00	176.73
473.00	177.26
474.00	177.61
475.00	178.16
476.00	178.14
477.00	178.23
478.00	178.48
479.00	179.50
480.00	179.31
481.00	179.06
482.00	179.72
483.00	179.33
484.00	180.88
485.00	181.88
486.00	181.40
487.00	181.82
488.00	181.40
489.00	182.38
490.00	183.34
491.00	183.20
492.00	184.87
493.00	185.12
494.00	186.22
495.00	185.56
496.00	187.04
497.00	187.89
498.00	188.49
499.00	187.77
500.00	188.09
501.00	187.41
502.00	188.04
503.00	188.85
504.00	189.38
505.00	188.91
506.00	189.22
507.00	189.25
508.00	191.04
509.00	188.66
510.00	189.70
511.00	188.84
512.00	188.99
513.00	189.40
514.00	189.44
515.00	189.26
516.00	189.62
517.00	190.14
518.00	188.88
519.00	191.12
520.00	190.93
521.00	191.11
522.00	191.49
523.00	191.69
524.00	191.44
525.00	191.85
526.00	192.26
527.00	192.87
528.00	193.77
529.00	194.69
530.00	193.49
531.00	194.03
532.00	194.54
533.00	195.39
534.00	195.67
535.00	196.62
536.00	196.58
537.00	197.00
538.00	196.77
539.00	198.65
540.00	199.33
541.00	197.75
542.00	198.36
543.00	198.37
544.00	197.77
545.00	199.00
546.00	198.88
547.00	201.99
548.00	199.76
549.00	198.31
550.00	199.35
551.00	199.03
552.00	198.30
553.00	198.79
554.00	199.32
555.00	199.40
556.00	200.06
557.00	199.60
558.00	199.69
559.00	201.04
560.00	201.76
561.00	199.58
562.00	201.03
563.00	201.18
564.00	201.47
565.00	202.94
566.00	201.72
567.00	203.10
568.00	202.90
569.00	203.66
570.00	205.02
571.00	204.29
572.00	206.10
573.00	205.38
574.00	206.38
575.00	207.34
576.00	207.49
577.00	207.25
578.00	209.87
579.00	209.73
580.00	210.92
581.00	210.32
582.00	211.12
583.00	211.66
584.00	212.59
585.00	212.50
586.00	213.35
587.00	213.36
588.00	212.38
589.00	213.40
590.00	213.55
591.00	213.49
592.00	213.88
593.00	212.96
594.00	213.31
595.00	212.35
596.00	211.87
597.00	213.15
598.00	213.04
599.00	213.07
600.00	212.77
601.00	212.09
602.00	212.33
603.00	212.94
604.00	212.32
605.00	213.84
606.00	213.13
607.00	211.62
608.00	213.46
609.00	212.60
610.00	212.24
611.00	212.76
612.00	213.07
613.00	212.74
614.00	213.06
615.00	212.32
616.00	214.40
617.00	213.43
618.00	215.22
619.00	214.29
620.00	213.78
621.00	215.44
622.00	214.99
623.00	214.07
624.00	215.20
625.00	216.00
626.00	216.28
627.00	218.29
628.00	216.92
629.00	216.88
630.00	216.25
631.00	217.92
632.00	217.46
633.00	216.88
634.00	217.87
635.00	218.09
636.00	217.20
637.00	218.01
638.00	218.36
639.00	217.30
640.00	217.51
641.00	217.56
642.00	216.96
643.00	216.81
644.00	215.53
645.00	216.65
646.00	216.45
647.00	216.35
648.00	214.71
649.00	214.72
650.00	214.15
651.00	212.90
652.00	212.91
653.00	213.52
654.00	212.91
655.00	212.42
656.00	211.71
657.00	211.29
658.00	212.30
659.00	209.80
660.00	210.20
661.00	209.48
662.00	208.99
663.00	208.45
664.00	209.16
665.00	208.74
666.00	207.94
667.00	206.94
668.00	208.60
669.00	207.04
670.00	206.77
671.00	205.85
672.00	205.31
673.00	204.93
674.00	206.24
675.00	205.70
676.00	205.70
677.00	204.95
678.00	203.76
679.00	203.84
680.00	203.39
681.00	204.48
682.00	204.02
683.00	202.49
684.00	203.18
685.00	202.06
686.00	203.05
687.00	202.07
688.00	200.93
689.00	200.14
690.00	200.58
691.00	199.62
692.00	199.89
693.00	200.73
694.00	199.43
695.00	199.02
696.00	199.07
697.00	198.80
698.00	198.09
699.00	197.47
700.00	197.37
701.00	196.92
702.00	196.05
703.00	199.87
704.00	194.92
705.00	194.32
706.00	195.08
707.00	192.40
708.00	192.13
709.00	191.06
710.00	190.59
711.00	189.68
712.00	188.23
713.00	188.07
714.00	185.87
715.00	185.94
716.00	185.16
717.00	184.58
718.00	183.99
719.00	182.36
720.00	181.21
721.00	180.23
722.00	180.54
723.00	180.02
724.00	179.00
725.00	177.63
726.00	177.67
727.00	176.54
728.00	175.63
729.00	174.81
730.00	175.01
731.00	174.23
732.00	175.60
733.00	173.34
734.00	173.09
735.00	171.98
736.00	171.40
737.00	171.11
738.00	171.69
739.00	170.68
740.00	170.86
741.00	170.09
742.00	170.04
743.00	170.21
744.00	170.66
745.00	170.02
746.00	170.37
747.00	169.53
748.00	169.77
749.00	169.19
750.00	169.39
751.00	169.19
752.00	169.35
753.00	169.06
754.00	170.28
755.00	168.60
756.00	168.87
757.00	169.19
758.00	170.41
759.00	168.76
760.00	168.98
761.00	168.99
762.00	168.12
763.00	169.10
764.00	168.50
765.00	170.05
766.00	169.21
767.00	169.23
768.00	168.66
769.00	168.38
770.00	168.99
771.00	168.74
772.00	168.17
773.00	168.66
774.00	168.63
775.00	169.08
776.00	168.19
777.00	168.33
778.00	168.58
779.00	167.72
780.00	168.45
781.00	168.43
782.00	168.95
783.00	170.19
784.00	168.30
785.00	169.56
786.00	168.92
787.00	170.08
788.00	167.96
789.00	168.80
790.00	169.90
791.00	168.11
792.00	168.87
793.00	168.97
794.00	168.39
795.00	168.11
796.00	169.46
797.00	167.92
798.00	168.92
799.00	168.56
800.00	168.38
801.00	169.32
802.00	167.85
803.00	168.64
804.00	169.19
805.00	168.30
806.00	168.48
807.00	168.43
808.00	167.25
809.00	168.02
810.00	169.34
811.00	168.86
812.00	169.03
813.00	169.47
814.00	168.48
815.00	169.70
816.00	168.34
817.00	169.38
818.00	168.15
819.00	168.14
820.00	168.27
821.00	168.25
822.00	169.07
823.00	168.18
824.00	167.75
825.00	169.70
826.00	168.94
827.00	168.96
828.00	169.49
829.00	168.50
830.00	169.57
831.00	168.90
832.00	168.84
833.00	168.49
834.00	167.71
835.00	169.04
836.00	168.61
837.00	168.02
838.00	168.93
839.00	168.44
840.00	168.34
841.00	168.70
842.00	169.22
843.00	167.75
844.00	168.79
845.00	169.36
846.00	167.99
847.00	167.89
848.00	168.35
849.00	168.32
850.00	176.54
851.00	167.71
852.00	168.07
853.00	168.96
854.00	169.30
855.00	170.53
856.00	168.89
857.00	169.46
858.00	169.85
859.00	168.83
860.00	169.01
861.00	168.89
862.00	168.59
863.00	168.70
864.00	168.44
865.00	168.31
866.00	168.18
867.00	169.48
868.00	170.24
869.00	169.31
870.00	169.00
871.00	168.71
872.00	169.95
873.00	169.34
874.00	168.55
875.00	168.02
876.00	168.03
877.00	168.22
878.00	169.10
879.00	167.74
880.00	168.76
881.00	168.99
882.00	167.71
883.00	168.34
884.00	169.09
885.00	168.05
886.00	167.57
887.00	168.59
888.00	168.04
889.00	167.31
890.00	169.20
891.00	168.98
892.00	170.75
893.00	168.46
894.00	168.51
895.00	169.23
896.00	169.37
897.00	169.47
898.00	168.48
899.00	169.17
900.00	168.24
901.00	170.05
902.00	167.58
903.00	168.68
904.00	167.63
905.00	170.75
906.00	170.00
907.00	169.04
908.00	168.52
909.00	168.29
910.00	170.34
911.00	169.64
912.00	170.35
913.00	167.95
914.00	168.40
915.00	169.48
916.00	169.03
917.00	168.43
918.00	168.69
919.00	170.12
920.00	169.42
921.00	169.29
922.00	168.31
923.00	168.19
924.00	169.35
925.00	171.99
926.00	170.05
927.00	168.24
928.00	170.25
929.00	168.13
930.00	168.74
931.00	169.82
932.00	169.38
933.00	170.74
934.00	168.61
935.00	168.28
936.00	168.84
937.00	169.67
938.00	169.93
939.00	168.66
940.00	168.94
941.00	169.44
942.00	171.02
943.00	169.33
944.00	168.88
945.00	168.73
946.00	169.22
947.00	168.34
948.00	168.10
949.00	167.96
950.00	169.08
951.00	168.95
952.00	168.93
953.00	168.89
954.00	168.95
955.00	168.65
956.00	169.78
957.00	169.01
958.00	168.84
959.00	169.22
960.00	170.28
961.00	169.62
962.00	170.55
963.00	168.44
964.00	169.11
965.00	169.11
966.00	169.50
967.00	169.01
968.00	170.98
969.00	170.88
970.00	168.77
971.00	168.43
972.00	170.64
973.00	169.29
974.00	169.80
975.00	168.77
976.00	169.34
977.00	168.85
978.00	168.84
979.00	169.16
980.00	169.28
981.00	169.03
982.00	169.32
983.00	167.88
984.00	165.74
985.00	169.01
986.00	168.53
987.00	169.12
988.00	169.94
989.00	169.28
990.00	168.81
991.00	169.30
992.00	169.36
993.00	169.19
994.00	168.43
995.00	168.89
996.00	170.50
997.00	169.90
998.00	169.22
999.00	169.73
1000.00	168.88
>>>>>End Processed Spectral Data<<<<<
