SpectraSuite Data File
++++++++++++++++++++++++++++++++++++
Date: Tue Aug 04 11:15:00 PDT 2026
User: Stephen Warren
Dark Spectrum Present: No
Reference Spectrum Present: No
Number of Sampled Component Spectra: 1
Spectrometers: USB2G24357
Integration Time (usec): 48000 (USB2G24357)
Spectra Averaged: 200 (USB2G24357)
Boxcar Smoothing: 0 (USB2G24357)
Correct for Electrical Dark: No (USB2G24357)
Strobe/Lamp Enabled: No (USB2G24357)
Correct for Detector Non-linearity: No (USB2G24357)
Correct for Stray Light: No (USB2G24357)
Number of Pixels in Processed Spectrum: 651
>>>>>Begin Processed Spectral Data<<<<<
350.00	164.79
351.00	164.73
352.00	165.48
353.00	166.01
354.00	166.10
355.00	166.24
356.00	165.54
357.00	165.14
358.00	167.27
359.00	165.71
360.00	165.58
361.00	166.43
362.00	166.07
363.00	165.71
364.00	166.23
365.00	165.75
366.00	166.29
367.00	166.75
368.00	166.54
369.00	166.82
370.00	166.39
371.00	166.89
372.00	166.53
373.00	167.98
374.00	166.46
375.00	166.14
376.00	165.93
377.00	167.22
378.00	167.50
379.00	167.23
380.00	166.06
381.00	167.76
382.00	166.60
383.00	166.26
384.00	166.56
385.00	166.60
386.00	166.56
387.00	167.13
388.00	166.28
389.00	167.25
390.00	166.25
391.00	166.99
392.00	167.48
393.00	167.91
394.00	167.28
395.00	170.23
396.00	166.89
397.00	166.75
398.00	167.08
399.00	167.02
400.00	167.00
401.00	166.51
402.00	167.18
403.00	167.07
404.00	166.35
405.00	166.85
406.00	167.02
407.00	167.29
408.00	166.86
409.00	167.61
410.00	166.73
411.00	166.43
412.00	167.55
413.00	167.87
414.00	167.66
415.00	167.56
416.00	167.81
417.00	167.26
418.00	167.32
419.00	169.03
420.00	167.92
421.00	167.79
422.00	167.13
423.00	167.20
424.00	167.11
425.00	167.50
426.00	166.83
427.00	167.84
428.00	167.30
429.00	166.97
430.00	167.03
431.00	166.43
432.00	167.04
433.00	167.20
434.00	168.18
435.00	167.49
436.00	167.40
437.00	167.59
438.00	167.51
439.00	167.85
440.00	167.91
441.00	166.91
442.00	167.03
443.00	168.45
444.00	166.86
445.00	167.39
446.00	167.15
447.00	166.66
448.00	167.44
449.00	168.32
450.00	167.74
451.00	166.84
452.00	167.17
453.00	166.54
454.00	167.12
455.00	167.40
456.00	167.46
457.00	167.90
458.00	167.75
459.00	167.84
460.00	167.07
461.00	167.57
462.00	167.80
463.00	167.53
464.00	168.49
465.00	167.65
466.00	167.26
467.00	169.11
468.00	167.99
469.00	168.12
470.00	168.28
471.00	167.45
472.00	167.52
473.00	167.87
474.00	167.97
475.00	168.30
476.00	167.77
477.00	168.17
478.00	168.20
479.00	168.90
480.00	168.23
481.00	167.78
482.00	168.45
483.00	167.33
484.00	168.74
485.00	169.44
486.00	168.83
487.00	168.41
488.00	167.91
489.00	168.76
490.00	169.16
491.00	168.53
492.00	169.42
493.00	169.37
494.00	169.81
495.00	168.60
496.00	169.78
497.00	170.60
498.00	170.57
499.00	169.59
500.00	170.14
501.00	169.38
502.00	169.21
503.00	170.23
504.00	170.98
505.00	169.97
506.00	170.27
507.00	170.32
508.00	172.70
509.00	170.43
510.00	170.92
511.00	170.01
512.00	170.65
513.00	170.75
514.00	170.66
515.00	170.39
516.00	170.39
517.00	171.04
518.00	169.67
519.00	171.79
520.00	171.29
521.00	170.35
522.00	170.76
523.00	171.29
524.00	170.87
525.00	170.72
526.00	171.21
527.00	171.45
528.00	171.81
529.00	172.70
530.00	170.90
531.00	171.52
532.00	171.48
533.00	172.22
534.00	172.11
535.00	173.41
536.00	172.17
537.00	172.10
538.00	171.79
539.00	173.33
540.00	172.85
541.00	172.00
542.00	172.52
543.00	172.26
544.00	171.67
545.00	172.81
546.00	173.37
547.00	175.79
548.00	174.31
549.00	172.58
550.00	172.94
551.00	173.49
552.00	172.66
553.00	172.92
554.00	172.90
555.00	173.30
556.00	173.34
557.00	173.01
558.00	173.19
559.00	174.18
560.00	174.52
561.00	172.94
562.00	173.88
563.00	174.14
564.00	173.96
565.00	174.48
566.00	173.79
567.00	174.75
568.00	174.36
569.00	174.71
570.00	175.31
571.00	174.72
572.00	175.15
573.00	174.52
574.00	174.86
575.00	175.19
576.00	175.18
577.00	174.35
578.00	176.60
579.00	175.79
580.00	176.86
581.00	175.89
582.00	175.74
583.00	176.18
584.00	177.39
585.00	176.99
586.00	176.97
587.00	176.92
588.00	176.82
589.00	177.11
590.00	177.28
591.00	177.06
592.00	178.13
593.00	176.82
594.00	177.49
595.00	176.85
596.00	176.55
597.00	177.51
598.00	177.64
599.00	177.87
600.00	177.02
601.00	176.97
602.00	177.59
603.00	177.67
604.00	177.91
605.00	178.89
606.00	178.20
607.00	177.17
608.00	178.23
609.00	177.89
610.00	177.36
611.00	178.56
612.00	177.96
613.00	177.18
614.00	178.47
615.00	177.19
616.00	179.09
617.00	177.68
618.00	179.30
619.00	178.25
620.00	177.91
621.00	178.72
622.00	178.56
623.00	177.77
624.00	178.53
625.00	179.20
626.00	179.38
627.00	181.14
628.00	179.40
629.00	178.74
630.00	178.25
631.00	179.73
632.00	179.33
633.00	178.78
634.00	179.54
635.00	180.34
636.00	179.22
637.00	180.36
638.00	180.43
639.00	179.10
640.00	179.53
641.00	180.02
642.00	179.09
643.00	179.74
644.00	179.34
645.00	180.10
646.00	179.52
647.00	179.83
648.00	178.92
649.00	179.01
650.00	178.69
651.00	178.66
652.00	178.51
653.00	179.14
654.00	179.13
655.00	178.63
656.00	178.72
657.00	178.80
658.00	179.62
659.00	177.46
660.00	178.54
661.00	177.64
662.00	177.79
663.00	177.69
664.00	177.78
665.00	178.08
666.00	177.46
667.00	176.96
668.00	179.01
669.00	177.18
670.00	177.38
671.00	176.89
672.00	177.34
673.00	177.26
674.00	177.73
675.00	177.68
676.00	177.37
677.00	176.83
678.00	176.88
679.00	176.40
680.00	176.12
681.00	177.65
682.00	178.16
683.00	176.21
684.00	176.90
685.00	176.58
686.00	177.30
687.00	176.22
688.00	175.95
689.00	175.11
690.00	176.54
691.00	175.05
692.00	175.46
693.00	176.64
694.00	175.57
695.00	174.98
696.00	175.55
697.00	175.57
698.00	175.74
699.00	175.06
700.00	175.04
701.00	175.32
702.00	174.28
703.00	178.82
704.00	174.27
705.00	174.17
706.00	175.29
707.00	173.22
708.00	173.96
709.00	173.97
710.00	172.98
711.00	172.43
712.00	172.17
713.00	172.07
714.00	171.51
715.00	171.67
716.00	172.02
717.00	171.39
718.00	171.26
719.00	170.29
720.00	170.30
721.00	169.69
722.00	170.81
723.00	170.75
724.00	169.63
725.00	169.45
726.00	169.08
727.00	168.85
728.00	168.22
729.00	167.66
730.00	169.07
731.00	167.98
732.00	169.43
733.00	167.60
734.00	167.73
735.00	167.07
736.00	167.08
737.00	166.93
738.00	167.63
739.00	166.68
740.00	167.54
741.00	166.51
742.00	166.53
743.00	166.48
744.00	167.18
745.00	166.91
746.00	166.72
747.00	166.27
748.00	166.75
749.00	166.20
750.00	166.77
751.00	166.79
752.00	166.53
753.00	166.59
754.00	167.49
755.00	165.83
756.00	166.07
757.00	166.40
758.00	167.09
759.00	165.71
760.00	166.31
761.00	166.11
762.00	165.16
763.00	166.57
764.00	165.77
765.00	167.55
766.00	166.47
767.00	166.50
768.00	166.57
769.00	165.75
770.00	166.22
771.00	166.32
772.00	165.09
773.00	166.48
774.00	166.52
775.00	166.78
776.00	165.20
777.00	165.91
778.00	166.20
779.00	165.43
780.00	166.20
781.00	165.76
782.00	166.21
783.00	166.53
784.00	165.81
785.00	166.90
786.00	166.44
787.00	167.37
788.00	165.86
789.00	166.54
790.00	167.50
791.00	165.40
792.00	166.26
793.00	166.64
794.00	166.22
795.00	165.42
796.00	166.96
797.00	165.18
798.00	166.64
799.00	166.11
800.00	165.96
801.00	166.74
802.00	165.29
803.00	166.37
804.00	166.88
805.00	166.70
806.00	165.87
807.00	166.17
808.00	165.07
809.00	166.23
810.00	167.12
811.00	166.55
812.00	166.39
813.00	167.61
814.00	166.42
815.00	167.39
816.00	166.37
817.00	167.22
818.00	165.77
819.00	165.94
820.00	165.81
821.00	165.90
822.00	166.96
823.00	166.01
824.00	165.27
825.00	167.15
826.00	166.74
827.00	166.43
828.00	167.16
829.00	165.80
830.00	167.17
831.00	166.77
832.00	166.60
833.00	165.96
834.00	165.33
835.00	166.46
836.00	166.30
837.00	165.28
838.00	166.56
839.00	165.99
840.00	165.84
841.00	166.49
842.00	166.69
843.00	165.38
844.00	166.72
845.00	166.96
846.00	165.96
847.00	165.50
848.00	166.10
849.00	165.56
850.00	174.19
851.00	165.57
852.00	165.58
853.00	166.67
854.00	166.75
855.00	167.95
856.00	167.00
857.00	167.13
858.00	167.26
859.00	166.09
860.00	166.19
861.00	166.46
862.00	166.12
863.00	165.98
864.00	166.06
865.00	165.86
866.00	165.78
867.00	166.41
868.00	167.74
869.00	166.73
870.00	166.80
871.00	166.18
872.00	167.36
873.00	167.29
874.00	166.42
875.00	165.64
876.00	166.41
877.00	165.46
878.00	166.72
879.00	165.13
880.00	166.72
881.00	166.74
882.00	165.54
883.00	166.02
884.00	166.80
885.00	165.93
886.00	165.27
887.00	166.13
888.00	166.03
889.00	165.25
890.00	166.71
891.00	166.77
892.00	168.24
893.00	166.50
894.00	166.36
895.00	166.86
896.00	166.69
897.00	166.17
898.00	165.95
899.00	166.89
900.00	165.84
901.00	167.54
902.00	165.51
903.00	166.28
904.00	166.07
905.00	168.71
906.00	167.54
907.00	166.26
908.00	166.48
909.00	165.97
910.00	168.09
911.00	166.91
912.00	168.19
913.00	165.47
914.00	166.16
915.00	167.58
916.00	166.83
917.00	165.47
918.00	166.90
919.00	171.95
920.00	166.46
921.00	166.72
922.00	165.47
923.00	165.84
924.00	166.71
925.00	169.62
926.00	167.65
927.00	165.60
928.00	167.55
929.00	165.48
930.00	166.57
931.00	167.66
932.00	166.78
933.00	168.77
934.00	166.39
935.00	166.13
936.00	166.05
937.00	167.45
938.00	167.72
939.00	166.35
940.00	166.73
941.00	167.19
942.00	168.18
943.00	166.72
944.00	166.87
945.00	166.34
946.00	167.36
947.00	166.07
948.00	166.34
949.00	165.95
950.00	166.73
951.00	166.65
952.00	166.87
953.00	166.55
954.00	166.51
955.00	166.26
956.00	167.49
957.00	166.71
958.00	166.39
959.00	167.00
960.00	168.18
961.00	167.21
962.00	167.75
963.00	166.29
964.00	167.02
965.00	166.95
966.00	167.40
967.00	166.92
968.00	168.02
969.00	168.84
970.00	166.35
971.00	165.94
972.00	168.37
973.00	166.90
974.00	167.17
975.00	166.22
976.00	167.28
977.00	166.54
978.00	166.57
979.00	166.74
980.00	166.98
981.00	166.42
982.00	167.34
983.00	165.61
984.00	163.68
985.00	166.58
986.00	166.24
987.00	167.30
988.00	167.61
989.00	166.83
990.00	166.65
991.00	166.89
992.00	166.95
993.00	167.06
994.00	166.07
995.00	166.98
996.00	168.32
997.00	167.92
998.00	166.91
999.00	167.44
1000.00	166.50
>>>>>End Processed Spectral Data<<<<<
