SpectraSuite Data File
++++++++++++++++++++++++++++++++++++
Date: Wed Aug 05 11:11:16 PDT 2026
User: Stephen Warren
Dark Spectrum Present: No
Reference Spectrum Present: No
Number of Sampled Component Spectra: 1
Spectrometers: USB2G24357
Integration Time (usec): 48000 (USB2G24357)
Spectra Averaged: 200 (USB2G24357)
Boxcar Smoothing: 0 (USB2G24357)
Correct for Electrical Dark: No (USB2G24357)
Strobe/Lamp Enabled: No (USB2G24357)
Correct for Detector Non-linearity: No (USB2G24357)
Correct for Stray Light: No (USB2G24357)
Number of Pixels in Processed Spectrum: 651
>>>>>Begin Processed Spectral Data<<<<<
350.00	165.92
351.00	166.16
352.00	166.54
353.00	167.14
354.00	167.19
355.00	166.98
356.00	166.60
357.00	166.43
358.00	168.18
359.00	167.11
360.00	167.10
361.00	167.80
362.00	167.15
363.00	166.79
364.00	167.19
365.00	167.03
366.00	167.71
367.00	168.18
368.00	168.40
369.00	168.20
370.00	167.48
371.00	168.32
372.00	167.99
373.00	169.38
374.00	167.88
375.00	167.27
376.00	167.12
377.00	168.53
378.00	168.75
379.00	168.31
380.00	167.50
381.00	168.64
382.00	167.72
383.00	167.68
384.00	168.06
385.00	167.65
386.00	168.34
387.00	167.98
388.00	167.37
389.00	168.03
390.00	168.00
391.00	168.07
392.00	168.49
393.00	169.07
394.00	168.39
395.00	170.64
396.00	167.98
397.00	167.97
398.00	168.27
399.00	168.38
400.00	167.76
401.00	167.73
402.00	168.41
403.00	168.55
404.00	167.59
405.00	168.39
406.00	168.58
407.00	168.48
408.00	168.29
409.00	168.86
410.00	168.15
411.00	167.84
412.00	169.04
413.00	169.08
414.00	169.07
415.00	168.45
416.00	169.24
417.00	168.58
418.00	168.31
419.00	170.17
420.00	169.22
421.00	169.59
422.00	168.80
423.00	168.15
424.00	168.71
425.00	169.15
426.00	168.26
427.00	169.21
428.00	168.38
429.00	168.53
430.00	168.45
431.00	168.48
432.00	168.72
433.00	168.94
434.00	169.83
435.00	169.19
436.00	169.33
437.00	169.25
438.00	169.52
439.00	169.44
440.00	169.49
441.00	168.82
442.00	168.92
443.00	170.14
444.00	169.06
445.00	169.69
446.00	169.21
447.00	168.85
448.00	169.42
449.00	170.43
450.00	170.05
451.00	169.55
452.00	169.38
453.00	169.42
454.00	169.72
455.00	170.02
456.00	169.87
457.00	170.53
458.00	170.85
459.00	170.45
460.00	169.97
461.00	169.91
462.00	170.93
463.00	170.51
464.00	171.24
465.00	171.14
466.00	170.83
467.00	172.28
468.00	171.62
469.00	171.31
470.00	171.58
471.00	171.40
472.00	171.15
473.00	171.19
474.00	171.60
475.00	171.78
476.00	171.70
477.00	172.45
478.00	172.19
479.00	173.28
480.00	172.72
481.00	171.92
482.00	173.13
483.00	172.60
484.00	173.92
485.00	174.62
486.00	173.82
487.00	174.15
488.00	173.30
489.00	174.41
490.00	174.91
491.00	174.45
492.00	175.79
493.00	175.70
494.00	176.26
495.00	175.67
496.00	176.47
497.00	177.46
498.00	178.30
499.00	177.37
500.00	177.77
501.00	176.46
502.00	177.11
503.00	177.56
504.00	178.38
505.00	178.09
506.00	177.80
507.00	178.90
508.00	180.60
509.00	177.93
510.00	179.23
511.00	178.10
512.00	177.96
513.00	178.95
514.00	178.74
515.00	178.73
516.00	178.73
517.00	178.96
518.00	178.11
519.00	180.11
520.00	179.99
521.00	178.92
522.00	179.85
523.00	180.43
524.00	179.90
525.00	179.94
526.00	180.27
527.00	180.36
528.00	181.09
529.00	182.39
530.00	180.63
531.00	180.92
532.00	181.78
533.00	182.28
534.00	182.44
535.00	184.16
536.00	182.73
537.00	183.70
538.00	183.15
539.00	184.82
540.00	184.85
541.00	184.12
542.00	184.10
543.00	183.99
544.00	183.45
545.00	184.67
546.00	184.75
547.00	188.02
548.00	185.76
549.00	185.04
550.00	185.40
551.00	185.22
552.00	184.22
553.00	184.70
554.00	185.09
555.00	185.77
556.00	185.84
557.00	185.55
558.00	185.21
559.00	186.86
560.00	187.18
561.00	185.44
562.00	186.94
563.00	187.11
564.00	187.43
565.00	188.24
566.00	187.70
567.00	188.52
568.00	188.45
569.00	188.77
570.00	190.20
571.00	189.77
572.00	190.49
573.00	189.94
574.00	190.58
575.00	191.15
576.00	191.50
577.00	191.23
578.00	194.00
579.00	193.05
580.00	193.84
581.00	194.11
582.00	194.09
583.00	194.88
584.00	196.01
585.00	195.71
586.00	195.92
587.00	195.98
588.00	195.92
589.00	196.45
590.00	196.45
591.00	196.52
592.00	197.21
593.00	196.10
594.00	196.99
595.00	196.07
596.00	195.84
597.00	197.01
598.00	197.10
599.00	197.41
600.00	196.96
601.00	196.58
602.00	197.17
603.00	197.66
604.00	197.75
605.00	198.58
606.00	197.92
607.00	196.76
608.00	198.24
609.00	197.64
610.00	197.25
611.00	198.03
612.00	198.14
613.00	197.51
614.00	198.37
615.00	197.92
616.00	199.20
617.00	198.03
618.00	199.37
619.00	199.11
620.00	198.64
621.00	200.01
622.00	199.70
623.00	199.44
624.00	200.17
625.00	201.22
626.00	200.69
627.00	203.29
628.00	201.21
629.00	200.83
630.00	201.04
631.00	202.10
632.00	202.32
633.00	201.37
634.00	202.36
635.00	203.03
636.00	201.79
637.00	202.80
638.00	203.26
639.00	202.57
640.00	202.07
641.00	202.31
642.00	201.82
643.00	201.66
644.00	201.67
645.00	202.18
646.00	201.77
647.00	201.70
648.00	200.58
649.00	201.13
650.00	200.11
651.00	199.65
652.00	199.54
653.00	199.80
654.00	199.77
655.00	199.50
656.00	199.09
657.00	198.58
658.00	200.09
659.00	197.35
660.00	198.44
661.00	197.94
662.00	196.84
663.00	196.54
664.00	197.46
665.00	196.89
666.00	196.81
667.00	195.49
668.00	197.89
669.00	196.04
670.00	195.57
671.00	194.68
672.00	194.14
673.00	194.16
674.00	195.46
675.00	195.25
676.00	194.91
677.00	194.28
678.00	193.14
679.00	193.83
680.00	193.23
681.00	194.12
682.00	194.98
683.00	192.81
684.00	193.24
685.00	192.59
686.00	193.16
687.00	192.51
688.00	191.96
689.00	191.45
690.00	191.60
691.00	190.79
692.00	191.09
693.00	192.29
694.00	190.80
695.00	190.21
696.00	190.54
697.00	190.48
698.00	189.68
699.00	189.42
700.00	189.02
701.00	188.88
702.00	187.58
703.00	191.79
704.00	187.32
705.00	187.03
706.00	187.67
707.00	185.35
708.00	185.09
709.00	184.54
710.00	183.70
711.00	183.25
712.00	181.92
713.00	181.58
714.00	180.41
715.00	180.15
716.00	180.14
717.00	179.25
718.00	178.12
719.00	177.23
720.00	176.06
721.00	175.82
722.00	176.78
723.00	176.24
724.00	175.05
725.00	174.08
726.00	174.21
727.00	172.74
728.00	172.29
729.00	171.64
730.00	171.80
731.00	171.33
732.00	172.65
733.00	170.83
734.00	170.56
735.00	170.08
736.00	169.39
737.00	169.17
738.00	169.63
739.00	168.83
740.00	169.61
741.00	168.48
742.00	168.18
743.00	168.73
744.00	169.29
745.00	168.69
746.00	168.79
747.00	168.33
748.00	168.43
749.00	167.73
750.00	168.24
751.00	168.26
752.00	167.70
753.00	167.77
754.00	168.94
755.00	167.30
756.00	167.90
757.00	167.93
758.00	168.85
759.00	167.63
760.00	167.19
761.00	167.46
762.00	167.05
763.00	168.25
764.00	167.15
765.00	168.45
766.00	167.97
767.00	168.06
768.00	167.65
769.00	166.82
770.00	167.40
771.00	167.43
772.00	166.44
773.00	167.85
774.00	167.76
775.00	168.08
776.00	166.39
777.00	167.01
778.00	168.06
779.00	166.67
780.00	167.07
781.00	167.18
782.00	167.55
783.00	167.65
784.00	166.91
785.00	168.45
786.00	168.62
787.00	168.60
788.00	166.96
789.00	167.78
790.00	168.56
791.00	166.83
792.00	167.52
793.00	168.33
794.00	167.27
795.00	166.68
796.00	168.41
797.00	167.02
798.00	167.97
799.00	167.48
800.00	167.19
801.00	168.25
802.00	166.81
803.00	167.48
804.00	167.96
805.00	167.78
806.00	167.54
807.00	166.96
808.00	166.63
809.00	167.26
810.00	168.02
811.00	167.74
812.00	167.57
813.00	168.22
814.00	167.54
815.00	168.16
816.00	167.79
817.00	168.06
818.00	167.23
819.00	167.06
820.00	167.32
821.00	167.11
822.00	167.84
823.00	167.23
824.00	166.78
825.00	168.24
826.00	167.98
827.00	168.28
828.00	168.12
829.00	167.53
830.00	168.70
831.00	168.27
832.00	168.09
833.00	167.21
834.00	166.94
835.00	167.98
836.00	167.26
837.00	166.86
838.00	167.63
839.00	167.27
840.00	167.24
841.00	167.63
842.00	168.26
843.00	166.73
844.00	167.58
845.00	168.31
846.00	167.49
847.00	167.02
848.00	166.97
849.00	167.45
850.00	174.70
851.00	166.74
852.00	166.54
853.00	167.57
854.00	168.07
855.00	169.28
856.00	167.65
857.00	168.61
858.00	168.34
859.00	167.62
860.00	168.09
861.00	167.70
862.00	167.80
863.00	167.42
864.00	167.36
865.00	167.36
866.00	166.70
867.00	167.87
868.00	169.59
869.00	168.22
870.00	168.08
871.00	167.31
872.00	168.84
873.00	168.30
874.00	167.55
875.00	167.22
876.00	166.95
877.00	167.31
878.00	167.90
879.00	166.81
880.00	168.04
881.00	168.10
882.00	166.73
883.00	167.34
884.00	168.01
885.00	167.23
886.00	166.26
887.00	167.64
888.00	167.39
889.00	166.23
890.00	168.27
891.00	167.90
892.00	169.63
893.00	167.14
894.00	167.78
895.00	167.79
896.00	168.06
897.00	167.80
898.00	167.01
899.00	167.96
900.00	167.29
901.00	168.48
902.00	166.31
903.00	167.61
904.00	167.13
905.00	169.79
906.00	169.03
907.00	167.88
908.00	167.41
909.00	166.98
910.00	168.92
911.00	168.53
912.00	169.80
913.00	166.98
914.00	167.32
915.00	168.57
916.00	167.74
917.00	167.07
918.00	167.91
919.00	169.14
920.00	168.22
921.00	168.01
922.00	166.59
923.00	166.87
924.00	167.95
925.00	171.05
926.00	169.14
927.00	166.69
928.00	168.78
929.00	166.70
930.00	167.20
931.00	169.00
932.00	167.87
933.00	169.90
934.00	167.50
935.00	167.31
936.00	167.67
937.00	168.67
938.00	169.08
939.00	167.65
940.00	167.82
941.00	168.38
942.00	169.49
943.00	168.09
944.00	167.85
945.00	167.69
946.00	168.44
947.00	167.72
948.00	167.34
949.00	166.93
950.00	168.00
951.00	167.98
952.00	167.73
953.00	167.74
954.00	167.90
955.00	167.16
956.00	168.68
957.00	167.86
958.00	167.67
959.00	168.10
960.00	169.35
961.00	168.56
962.00	169.28
963.00	167.74
964.00	167.74
965.00	167.87
966.00	168.67
967.00	168.07
968.00	169.40
969.00	169.78
970.00	167.86
971.00	167.03
972.00	169.49
973.00	168.12
974.00	168.10
975.00	167.70
976.00	168.59
977.00	167.85
978.00	167.77
979.00	167.76
980.00	168.14
981.00	167.50
982.00	168.46
983.00	166.73
984.00	164.66
985.00	167.37
986.00	167.91
987.00	168.03
988.00	168.70
989.00	168.24
990.00	168.08
991.00	168.24
992.00	167.99
993.00	168.23
994.00	167.02
995.00	168.18
996.00	169.64
997.00	170.22
998.00	168.43
999.00	168.64
1000.00	167.68
>>>>>End Processed Spectral Data<<<<<
