SpectraSuite Data File
++++++++++++++++++++++++++++++++++++
Date: Fri Jul 17 14:03:04 PDT 2026
User: Stephen Warren
Dark Spectrum Present: No
Reference Spectrum Present: No
Number of Sampled Component Spectra: 1
Spectrometers: USB2G24357
Integration Time (usec): 48000 (USB2G24357)
Spectra Averaged: 200 (USB2G24357)
Boxcar Smoothing: 0 (USB2G24357)
Correct for Electrical Dark: No (USB2G24357)
Strobe/Lamp Enabled: No (USB2G24357)
Correct for Detector Non-linearity: No (USB2G24357)
Correct for Stray Light: No (USB2G24357)
Number of Pixels in Processed Spectrum: 651
>>>>>Begin Processed Spectral Data<<<<<
350.00	166.70
351.00	167.31
352.00	167.89
353.00	167.90
354.00	167.78
355.00	167.66
356.00	167.47
357.00	166.94
358.00	168.89
359.00	167.51
360.00	167.67
361.00	168.84
362.00	167.97
363.00	167.81
364.00	168.37
365.00	167.78
366.00	168.25
367.00	169.03
368.00	168.76
369.00	169.09
370.00	168.83
371.00	168.78
372.00	169.05
373.00	169.87
374.00	168.69
375.00	168.20
376.00	167.55
377.00	169.05
378.00	169.73
379.00	169.19
380.00	168.28
381.00	169.65
382.00	168.70
383.00	168.23
384.00	168.40
385.00	168.94
386.00	168.74
387.00	169.00
388.00	168.84
389.00	168.99
390.00	168.88
391.00	169.04
392.00	169.45
393.00	170.36
394.00	169.64
395.00	172.19
396.00	169.41
397.00	169.41
398.00	169.97
399.00	169.99
400.00	169.80
401.00	170.07
402.00	170.20
403.00	170.73
404.00	170.23
405.00	170.69
406.00	170.75
407.00	171.35
408.00	171.25
409.00	171.95
410.00	171.54
411.00	171.38
412.00	172.51
413.00	173.25
414.00	173.60
415.00	173.88
416.00	174.26
417.00	174.14
418.00	173.96
419.00	176.65
420.00	175.99
421.00	176.21
422.00	175.68
423.00	175.51
424.00	176.12
425.00	176.87
426.00	176.69
427.00	177.97
428.00	177.44
429.00	177.57
430.00	177.95
431.00	178.16
432.00	179.25
433.00	180.17
434.00	181.41
435.00	181.35
436.00	182.34
437.00	183.44
438.00	184.73
439.00	185.05
440.00	186.44
441.00	186.61
442.00	187.50
443.00	189.25
444.00	188.31
445.00	188.43
446.00	188.14
447.00	188.77
448.00	189.94
449.00	190.88
450.00	190.81
451.00	190.26
452.00	190.55
453.00	191.19
454.00	191.87
455.00	193.03
456.00	193.86
457.00	195.75
458.00	195.87
459.00	197.40
460.00	197.40
461.00	199.16
462.00	201.50
463.00	202.74
464.00	203.75
465.00	205.34
466.00	205.91
467.00	208.88
468.00	209.44
469.00	210.15
470.00	211.74
471.00	211.74
472.00	211.59
473.00	213.47
474.00	213.99
475.00	215.40
476.00	216.28
477.00	217.59
478.00	218.47
479.00	220.60
480.00	221.83
481.00	222.21
482.00	224.37
483.00	226.03
484.00	229.01
485.00	231.32
486.00	232.36
487.00	234.73
488.00	236.17
489.00	239.33
490.00	242.06
491.00	244.27
492.00	247.64
493.00	250.25
494.00	252.45
495.00	254.52
496.00	257.68
497.00	259.75
498.00	262.18
499.00	261.93
500.00	263.03
501.00	262.92
502.00	263.58
503.00	264.41
504.00	264.80
505.00	264.12
506.00	264.84
507.00	264.65
508.00	265.20
509.00	263.52
510.00	263.95
511.00	263.36
512.00	263.25
513.00	263.26
514.00	264.31
515.00	264.30
516.00	263.97
517.00	265.69
518.00	265.60
519.00	268.85
520.00	267.97
521.00	268.95
522.00	270.36
523.00	271.66
524.00	271.71
525.00	273.31
526.00	274.57
527.00	275.89
528.00	277.31
529.00	279.36
530.00	279.29
531.00	280.72
532.00	283.36
533.00	285.20
534.00	287.23
535.00	290.25
536.00	291.50
537.00	293.03
538.00	293.91
539.00	296.44
540.00	296.84
541.00	297.36
542.00	297.02
543.00	297.33
544.00	295.69
545.00	297.06
546.00	296.37
547.00	299.61
548.00	296.79
549.00	296.33
550.00	295.46
551.00	295.71
552.00	293.49
553.00	294.85
554.00	295.25
555.00	296.01
556.00	296.19
557.00	296.09
558.00	295.66
559.00	298.05
560.00	296.86
561.00	296.28
562.00	298.50
563.00	299.60
564.00	299.56
565.00	302.24
566.00	302.52
567.00	303.85
568.00	304.92
569.00	305.60
570.00	308.59
571.00	310.58
572.00	313.45
573.00	313.75
574.00	315.92
575.00	319.40
576.00	320.04
577.00	321.57
578.00	326.31
579.00	325.96
580.00	329.78
581.00	330.51
582.00	332.52
583.00	333.31
584.00	335.71
585.00	335.35
586.00	336.56
587.00	336.59
588.00	335.73
589.00	336.74
590.00	336.55
591.00	335.38
592.00	335.52
593.00	333.72
594.00	334.15
595.00	332.48
596.00	331.40
597.00	331.98
598.00	331.13
599.00	328.61
600.00	328.99
601.00	328.30
602.00	327.31
603.00	328.26
604.00	327.93
605.00	328.24
606.00	326.88
607.00	325.50
608.00	326.48
609.00	326.67
610.00	325.45
611.00	325.99
612.00	328.01
613.00	325.86
614.00	327.88
615.00	325.80
616.00	328.79
617.00	327.19
618.00	329.83
619.00	329.81
620.00	329.62
621.00	331.55
622.00	331.82
623.00	331.19
624.00	332.13
625.00	334.62
626.00	335.05
627.00	337.44
628.00	336.28
629.00	337.17
630.00	336.89
631.00	338.18
632.00	338.23
633.00	337.73
634.00	338.24
635.00	338.81
636.00	337.45
637.00	338.61
638.00	337.73
639.00	336.64
640.00	336.92
641.00	336.32
642.00	334.57
643.00	333.22
644.00	331.85
645.00	331.45
646.00	329.76
647.00	328.43
648.00	325.72
649.00	323.94
650.00	321.87
651.00	320.20
652.00	319.08
653.00	317.98
654.00	315.52
655.00	314.32
656.00	313.08
657.00	310.80
658.00	311.44
659.00	306.64
660.00	306.46
661.00	304.09
662.00	302.63
663.00	301.45
664.00	301.21
665.00	299.07
666.00	297.85
667.00	295.80
668.00	297.09
669.00	294.47
670.00	292.72
671.00	289.63
672.00	287.62
673.00	286.18
674.00	289.06
675.00	287.37
676.00	286.99
677.00	285.23
678.00	283.17
679.00	282.78
680.00	280.94
681.00	281.10
682.00	280.67
683.00	278.11
684.00	277.77
685.00	276.04
686.00	276.11
687.00	274.41
688.00	272.91
689.00	271.24
690.00	271.42
691.00	268.65
692.00	268.97
693.00	269.30
694.00	266.43
695.00	265.11
696.00	264.56
697.00	262.92
698.00	261.25
699.00	260.03
700.00	258.00
701.00	256.48
702.00	253.00
703.00	256.44
704.00	250.13
705.00	248.23
706.00	247.22
707.00	242.47
708.00	241.01
709.00	238.26
710.00	235.13
711.00	232.99
712.00	229.31
713.00	227.03
714.00	223.78
715.00	221.08
716.00	219.01
717.00	215.98
718.00	212.71
719.00	209.54
720.00	206.35
721.00	204.51
722.00	202.87
723.00	200.85
724.00	198.28
725.00	195.64
726.00	193.97
727.00	191.54
728.00	189.15
729.00	187.12
730.00	186.65
731.00	184.46
732.00	184.97
733.00	181.70
734.00	180.68
735.00	178.73
736.00	177.75
737.00	176.95
738.00	176.30
739.00	174.80
740.00	175.13
741.00	173.70
742.00	173.74
743.00	172.75
744.00	172.65
745.00	172.66
746.00	172.21
747.00	171.42
748.00	171.36
749.00	170.66
750.00	171.13
751.00	171.01
752.00	170.59
753.00	170.49
754.00	171.47
755.00	169.29
756.00	170.10
757.00	169.93
758.00	170.93
759.00	169.14
760.00	169.15
761.00	169.16
762.00	168.92
763.00	169.76
764.00	168.73
765.00	170.27
766.00	169.39
767.00	169.40
768.00	168.74
769.00	168.28
770.00	168.81
771.00	168.61
772.00	168.04
773.00	169.19
774.00	168.69
775.00	169.21
776.00	167.63
777.00	168.47
778.00	168.79
779.00	167.98
780.00	168.55
781.00	168.55
782.00	168.82
783.00	170.79
784.00	168.27
785.00	169.53
786.00	169.07
787.00	169.77
788.00	167.98
789.00	169.13
790.00	169.89
791.00	167.79
792.00	168.39
793.00	168.91
794.00	168.32
795.00	167.68
796.00	169.39
797.00	167.87
798.00	168.93
799.00	168.60
800.00	168.08
801.00	168.80
802.00	167.59
803.00	168.28
804.00	168.86
805.00	168.37
806.00	168.12
807.00	168.13
808.00	167.37
809.00	168.13
810.00	169.12
811.00	168.47
812.00	168.07
813.00	168.99
814.00	168.62
815.00	169.59
816.00	168.25
817.00	169.03
818.00	167.87
819.00	168.17
820.00	167.95
821.00	167.81
822.00	168.64
823.00	167.92
824.00	167.59
825.00	168.90
826.00	168.56
827.00	168.71
828.00	169.09
829.00	167.84
830.00	169.40
831.00	168.33
832.00	168.36
833.00	168.26
834.00	167.39
835.00	168.77
836.00	168.28
837.00	167.47
838.00	168.71
839.00	168.15
840.00	167.55
841.00	168.73
842.00	168.86
843.00	167.30
844.00	168.39
845.00	168.94
846.00	168.03
847.00	167.32
848.00	167.53
849.00	167.68
850.00	176.16
851.00	167.35
852.00	167.61
853.00	168.46
854.00	168.93
855.00	169.89
856.00	168.67
857.00	169.60
858.00	169.48
859.00	168.14
860.00	168.72
861.00	168.32
862.00	168.50
863.00	168.26
864.00	167.92
865.00	168.19
866.00	167.67
867.00	168.66
868.00	169.58
869.00	168.73
870.00	168.78
871.00	167.97
872.00	169.58
873.00	168.57
874.00	168.38
875.00	167.85
876.00	168.00
877.00	168.19
878.00	168.71
879.00	167.33
880.00	169.10
881.00	168.29
882.00	167.21
883.00	167.96
884.00	169.05
885.00	167.97
886.00	167.64
887.00	167.95
888.00	168.10
889.00	167.14
890.00	168.87
891.00	168.67
892.00	169.64
893.00	167.84
894.00	168.27
895.00	168.68
896.00	168.83
897.00	168.44
898.00	167.74
899.00	169.02
900.00	168.15
901.00	169.27
902.00	167.09
903.00	168.61
904.00	168.10
905.00	170.64
906.00	169.55
907.00	168.68
908.00	168.21
909.00	168.02
910.00	170.35
911.00	168.95
912.00	170.26
913.00	167.89
914.00	168.13
915.00	169.53
916.00	168.58
917.00	168.04
918.00	168.62
919.00	173.51
920.00	168.46
921.00	168.54
922.00	167.90
923.00	167.39
924.00	168.81
925.00	171.53
926.00	169.57
927.00	167.53
928.00	169.72
929.00	167.49
930.00	168.40
931.00	169.33
932.00	168.35
933.00	171.15
934.00	168.32
935.00	168.04
936.00	168.17
937.00	169.37
938.00	169.51
939.00	168.50
940.00	168.43
941.00	168.95
942.00	170.27
943.00	168.97
944.00	168.68
945.00	168.52
946.00	168.77
947.00	167.80
948.00	167.98
949.00	167.82
950.00	168.63
951.00	168.62
952.00	168.88
953.00	168.56
954.00	168.51
955.00	168.27
956.00	169.94
957.00	168.59
958.00	168.27
959.00	168.79
960.00	169.98
961.00	169.12
962.00	169.74
963.00	168.33
964.00	168.38
965.00	168.17
966.00	168.87
967.00	168.67
968.00	170.12
969.00	170.77
970.00	168.84
971.00	167.86
972.00	170.29
973.00	168.71
974.00	169.12
975.00	167.86
976.00	169.20
977.00	168.61
978.00	168.41
979.00	168.66
980.00	168.77
981.00	168.11
982.00	168.99
983.00	167.60
984.00	164.79
985.00	168.50
986.00	168.36
987.00	168.98
988.00	169.67
989.00	168.84
990.00	168.43
991.00	168.79
992.00	169.04
993.00	168.65
994.00	167.82
995.00	168.65
996.00	170.09
997.00	169.75
998.00	168.99
999.00	169.27
1000.00	167.82
>>>>>End Processed Spectral Data<<<<<
