SpectraSuite Data File
++++++++++++++++++++++++++++++++++++
Date: Tue Aug 04 13:17:49 PDT 2026
User: Stephen Warren
Dark Spectrum Present: No
Reference Spectrum Present: No
Number of Sampled Component Spectra: 1
Spectrometers: USB2G24357
Integration Time (usec): 48000 (USB2G24357)
Spectra Averaged: 200 (USB2G24357)
Boxcar Smoothing: 0 (USB2G24357)
Correct for Electrical Dark: No (USB2G24357)
Strobe/Lamp Enabled: No (USB2G24357)
Correct for Detector Non-linearity: No (USB2G24357)
Correct for Stray Light: No (USB2G24357)
Number of Pixels in Processed Spectrum: 651
>>>>>Begin Processed Spectral Data<<<<<
350.00	154.70
351.00	155.32
352.00	155.86
353.00	156.42
354.00	156.06
355.00	156.11
356.00	155.82
357.00	155.43
358.00	157.32
359.00	155.90
360.00	155.63
361.00	157.00
362.00	156.19
363.00	155.82
364.00	156.75
365.00	155.85
366.00	156.46
367.00	157.33
368.00	157.22
369.00	157.50
370.00	156.93
371.00	157.17
372.00	156.88
373.00	158.07
374.00	156.86
375.00	156.96
376.00	156.27
377.00	157.52
378.00	158.20
379.00	157.36
380.00	156.57
381.00	157.74
382.00	157.47
383.00	156.30
384.00	156.91
385.00	156.89
386.00	157.18
387.00	156.89
388.00	156.91
389.00	157.60
390.00	156.84
391.00	156.77
392.00	157.57
393.00	158.35
394.00	157.49
395.00	160.33
396.00	157.56
397.00	156.85
398.00	157.78
399.00	157.79
400.00	157.27
401.00	157.22
402.00	157.70
403.00	158.17
404.00	157.38
405.00	158.05
406.00	158.02
407.00	158.53
408.00	158.10
409.00	158.95
410.00	157.97
411.00	157.79
412.00	158.88
413.00	159.43
414.00	159.60
415.00	158.74
416.00	159.75
417.00	159.32
418.00	159.05
419.00	161.26
420.00	160.03
421.00	160.63
422.00	159.75
423.00	159.85
424.00	160.04
425.00	160.72
426.00	160.26
427.00	161.36
428.00	160.27
429.00	160.65
430.00	160.50
431.00	160.62
432.00	160.52
433.00	161.15
434.00	162.98
435.00	162.54
436.00	162.49
437.00	163.41
438.00	163.61
439.00	163.76
440.00	164.25
441.00	163.80
442.00	164.29
443.00	165.93
444.00	164.71
445.00	164.79
446.00	164.79
447.00	164.41
448.00	165.56
449.00	167.36
450.00	166.66
451.00	165.68
452.00	165.72
453.00	166.27
454.00	166.73
455.00	167.51
456.00	167.84
457.00	168.59
458.00	168.41
459.00	169.01
460.00	168.83
461.00	169.28
462.00	171.28
463.00	171.32
464.00	172.53
465.00	172.64
466.00	172.86
467.00	175.04
468.00	174.54
469.00	174.65
470.00	175.96
471.00	175.17
472.00	175.66
473.00	176.46
474.00	176.52
475.00	177.39
476.00	177.67
477.00	178.53
478.00	178.58
479.00	180.56
480.00	180.04
481.00	179.99
482.00	181.58
483.00	181.49
484.00	183.88
485.00	185.55
486.00	185.86
487.00	186.60
488.00	186.52
489.00	188.68
490.00	189.55
491.00	190.82
492.00	192.78
493.00	193.88
494.00	195.43
495.00	195.83
496.00	197.65
497.00	199.63
498.00	201.29
499.00	200.30
500.00	201.10
501.00	200.38
502.00	201.36
503.00	201.70
504.00	202.96
505.00	202.32
506.00	202.54
507.00	202.49
508.00	204.95
509.00	202.58
510.00	203.13
511.00	202.19
512.00	202.13
513.00	203.11
514.00	203.46
515.00	203.46
516.00	203.66
517.00	204.31
518.00	203.76
519.00	205.96
520.00	206.35
521.00	205.85
522.00	207.19
523.00	207.82
524.00	207.55
525.00	208.11
526.00	209.01
527.00	210.10
528.00	211.18
529.00	213.80
530.00	212.22
531.00	213.43
532.00	215.28
533.00	217.07
534.00	218.13
535.00	220.75
536.00	219.89
537.00	221.16
538.00	222.03
539.00	223.66
540.00	223.85
541.00	223.11
542.00	223.90
543.00	224.63
544.00	222.76
545.00	224.44
546.00	224.35
547.00	228.35
548.00	225.53
549.00	224.12
550.00	225.23
551.00	225.29
552.00	223.64
553.00	223.99
554.00	225.12
555.00	226.21
556.00	226.63
557.00	225.51
558.00	226.27
559.00	228.00
560.00	227.99
561.00	226.73
562.00	228.56
563.00	229.47
564.00	229.89
565.00	231.55
566.00	230.85
567.00	233.09
568.00	232.98
569.00	234.12
570.00	236.15
571.00	236.30
572.00	238.97
573.00	239.74
574.00	240.52
575.00	241.73
576.00	242.38
577.00	243.06
578.00	248.15
579.00	247.22
580.00	249.53
581.00	249.53
582.00	250.85
583.00	251.70
584.00	254.31
585.00	253.73
586.00	253.59
587.00	254.74
588.00	254.01
589.00	255.48
590.00	255.43
591.00	254.82
592.00	255.35
593.00	254.00
594.00	254.37
595.00	253.31
596.00	252.13
597.00	253.49
598.00	253.20
599.00	252.73
600.00	251.55
601.00	252.19
602.00	252.11
603.00	252.83
604.00	252.32
605.00	253.22
606.00	252.19
607.00	250.79
608.00	252.22
609.00	252.35
610.00	251.64
611.00	252.57
612.00	253.54
613.00	251.78
614.00	253.25
615.00	252.56
616.00	254.38
617.00	253.14
618.00	255.49
619.00	254.62
620.00	254.33
621.00	256.22
622.00	256.19
623.00	255.68
624.00	256.78
625.00	258.64
626.00	258.72
627.00	261.46
628.00	259.89
629.00	260.08
630.00	260.24
631.00	261.22
632.00	261.24
633.00	260.86
634.00	262.05
635.00	262.70
636.00	261.07
637.00	262.25
638.00	262.85
639.00	260.78
640.00	261.18
641.00	260.37
642.00	259.67
643.00	259.83
644.00	258.46
645.00	258.42
646.00	258.00
647.00	256.56
648.00	254.70
649.00	254.34
650.00	252.05
651.00	251.40
652.00	250.73
653.00	250.76
654.00	249.24
655.00	248.46
656.00	247.77
657.00	246.38
658.00	247.37
659.00	243.58
660.00	244.56
661.00	243.15
662.00	242.09
663.00	240.29
664.00	240.77
665.00	240.01
666.00	239.56
667.00	236.80
668.00	239.15
669.00	236.85
670.00	236.39
671.00	233.80
672.00	233.30
673.00	231.81
674.00	233.64
675.00	233.26
676.00	233.30
677.00	231.62
678.00	229.61
679.00	230.03
680.00	228.85
681.00	230.16
682.00	229.97
683.00	227.24
684.00	227.40
685.00	226.25
686.00	227.20
687.00	225.50
688.00	224.39
689.00	223.30
690.00	222.96
691.00	221.61
692.00	222.02
693.00	222.50
694.00	220.68
695.00	219.55
696.00	218.98
697.00	218.13
698.00	216.87
699.00	216.15
700.00	215.04
701.00	214.31
702.00	211.84
703.00	212.85
704.00	209.71
705.00	208.65
706.00	209.06
707.00	205.18
708.00	203.25
709.00	202.45
710.00	200.20
711.00	198.49
712.00	196.14
713.00	194.37
714.00	192.92
715.00	190.62
716.00	189.58
717.00	187.18
718.00	186.28
719.00	183.97
720.00	181.70
721.00	180.09
722.00	180.04
723.00	178.46
724.00	176.30
725.00	174.34
726.00	173.51
727.00	172.05
728.00	169.97
729.00	168.39
730.00	168.65
731.00	167.08
732.00	168.12
733.00	165.53
734.00	164.79
735.00	163.71
736.00	162.64
737.00	161.89
738.00	162.03
739.00	160.30
740.00	160.98
741.00	159.34
742.00	159.64
743.00	159.69
744.00	159.91
745.00	159.64
746.00	159.44
747.00	158.69
748.00	158.81
749.00	157.88
750.00	158.55
751.00	158.34
752.00	158.27
753.00	157.90
754.00	159.39
755.00	157.09
756.00	157.25
757.00	157.76
758.00	158.92
759.00	156.54
760.00	157.15
761.00	156.74
762.00	156.22
763.00	158.10
764.00	156.54
765.00	158.44
766.00	157.31
767.00	157.37
768.00	157.12
769.00	156.38
770.00	156.93
771.00	157.02
772.00	156.13
773.00	157.65
774.00	156.91
775.00	158.27
776.00	155.94
777.00	156.54
778.00	156.88
779.00	155.80
780.00	156.50
781.00	156.81
782.00	157.32
783.00	158.86
784.00	156.17
785.00	157.73
786.00	157.81
787.00	158.10
788.00	156.41
789.00	157.15
790.00	158.08
791.00	155.92
792.00	156.99
793.00	157.07
794.00	156.54
795.00	156.09
796.00	157.56
797.00	155.63
798.00	157.41
799.00	156.81
800.00	156.42
801.00	157.30
802.00	155.90
803.00	157.02
804.00	157.50
805.00	156.72
806.00	156.55
807.00	156.82
808.00	155.59
809.00	156.46
810.00	157.55
811.00	156.71
812.00	156.56
813.00	157.88
814.00	156.70
815.00	157.86
816.00	156.54
817.00	157.79
818.00	156.64
819.00	156.40
820.00	156.15
821.00	156.05
822.00	157.13
823.00	156.46
824.00	155.72
825.00	157.35
826.00	156.95
827.00	157.04
828.00	157.47
829.00	156.30
830.00	158.05
831.00	157.04
832.00	157.03
833.00	156.36
834.00	156.10
835.00	156.91
836.00	156.55
837.00	156.21
838.00	157.00
839.00	156.57
840.00	156.41
841.00	157.38
842.00	157.06
843.00	155.35
844.00	157.09
845.00	157.44
846.00	156.46
847.00	156.21
848.00	156.26
849.00	156.56
850.00	165.78
851.00	155.79
852.00	155.65
853.00	156.73
854.00	157.33
855.00	158.53
856.00	156.93
857.00	157.60
858.00	157.72
859.00	156.34
860.00	156.96
861.00	156.87
862.00	156.33
863.00	156.64
864.00	156.51
865.00	156.61
866.00	156.04
867.00	156.90
868.00	158.41
869.00	157.14
870.00	157.01
871.00	156.40
872.00	158.25
873.00	157.36
874.00	156.84
875.00	156.20
876.00	156.29
877.00	156.51
878.00	157.34
879.00	155.74
880.00	157.07
881.00	157.27
882.00	155.63
883.00	156.12
884.00	157.18
885.00	156.31
886.00	156.02
887.00	156.46
888.00	156.66
889.00	155.39
890.00	157.39
891.00	157.05
892.00	159.16
893.00	156.51
894.00	156.76
895.00	157.37
896.00	157.37
897.00	157.18
898.00	156.61
899.00	157.33
900.00	156.28
901.00	158.34
902.00	155.75
903.00	156.77
904.00	155.58
905.00	159.37
906.00	157.71
907.00	157.04
908.00	156.52
909.00	156.01
910.00	158.52
911.00	157.25
912.00	159.15
913.00	156.12
914.00	156.33
915.00	157.86
916.00	157.14
917.00	156.12
918.00	157.00
919.00	162.61
920.00	157.38
921.00	157.19
922.00	156.09
923.00	156.29
924.00	157.32
925.00	160.67
926.00	157.91
927.00	155.93
928.00	158.26
929.00	155.55
930.00	156.66
931.00	158.41
932.00	157.04
933.00	159.42
934.00	157.04
935.00	156.31
936.00	156.55
937.00	158.14
938.00	158.34
939.00	157.14
940.00	156.81
941.00	157.73
942.00	158.97
943.00	157.85
944.00	157.47
945.00	156.87
946.00	157.43
947.00	156.43
948.00	156.76
949.00	156.03
950.00	157.23
951.00	157.11
952.00	157.26
953.00	156.81
954.00	156.80
955.00	156.43
956.00	158.33
957.00	157.34
958.00	156.72
959.00	157.44
960.00	158.52
961.00	157.45
962.00	158.70
963.00	156.65
964.00	157.00
965.00	157.42
966.00	157.75
967.00	156.93
968.00	159.33
969.00	159.47
970.00	157.23
971.00	156.29
972.00	159.34
973.00	157.39
974.00	157.70
975.00	156.54
976.00	157.77
977.00	157.25
978.00	157.00
979.00	157.37
980.00	156.98
981.00	156.74
982.00	157.69
983.00	155.62
984.00	153.63
985.00	157.21
986.00	157.17
987.00	157.58
988.00	158.07
989.00	157.14
990.00	157.15
991.00	157.57
992.00	157.31
993.00	157.25
994.00	156.28
995.00	157.35
996.00	159.36
997.00	158.32
998.00	157.93
999.00	158.12
1000.00	156.22
>>>>>End Processed Spectral Data<<<<<
