SpectraSuite Data File
++++++++++++++++++++++++++++++++++++
Date: Tue Aug 04 13:13:52 PDT 2026
User: Stephen Warren
Dark Spectrum Present: No
Reference Spectrum Present: No
Number of Sampled Component Spectra: 1
Spectrometers: USB2G24357
Integration Time (usec): 48000 (USB2G24357)
Spectra Averaged: 200 (USB2G24357)
Boxcar Smoothing: 0 (USB2G24357)
Correct for Electrical Dark: No (USB2G24357)
Strobe/Lamp Enabled: No (USB2G24357)
Correct for Detector Non-linearity: No (USB2G24357)
Correct for Stray Light: No (USB2G24357)
Number of Pixels in Processed Spectrum: 651
>>>>>Begin Processed Spectral Data<<<<<
350.00	155.02
351.00	155.43
352.00	156.60
353.00	156.49
354.00	156.26
355.00	156.59
356.00	156.07
357.00	155.53
358.00	157.65
359.00	156.35
360.00	155.90
361.00	157.17
362.00	156.57
363.00	156.14
364.00	156.64
365.00	156.04
366.00	156.88
367.00	157.82
368.00	157.39
369.00	157.58
370.00	157.42
371.00	157.24
372.00	156.85
373.00	158.23
374.00	157.28
375.00	156.34
376.00	156.51
377.00	157.57
378.00	157.86
379.00	157.62
380.00	156.48
381.00	157.95
382.00	156.77
383.00	156.74
384.00	156.95
385.00	157.14
386.00	157.32
387.00	157.47
388.00	157.27
389.00	157.82
390.00	156.80
391.00	157.22
392.00	158.00
393.00	158.46
394.00	157.96
395.00	160.50
396.00	157.17
397.00	157.21
398.00	157.86
399.00	157.78
400.00	157.54
401.00	157.45
402.00	157.58
403.00	157.99
404.00	157.29
405.00	157.92
406.00	157.74
407.00	157.98
408.00	157.58
409.00	158.59
410.00	157.90
411.00	157.50
412.00	158.44
413.00	159.20
414.00	159.44
415.00	158.91
416.00	159.51
417.00	158.29
418.00	158.06
419.00	160.96
420.00	159.51
421.00	159.82
422.00	158.81
423.00	158.66
424.00	158.97
425.00	159.39
426.00	159.07
427.00	160.09
428.00	159.05
429.00	159.14
430.00	159.60
431.00	159.08
432.00	159.47
433.00	160.10
434.00	161.12
435.00	160.77
436.00	160.24
437.00	160.89
438.00	161.54
439.00	161.91
440.00	162.10
441.00	161.25
442.00	161.59
443.00	163.09
444.00	162.01
445.00	162.20
446.00	162.21
447.00	161.55
448.00	162.41
449.00	164.12
450.00	163.38
451.00	162.62
452.00	162.74
453.00	162.56
454.00	163.22
455.00	163.55
456.00	163.48
457.00	164.79
458.00	164.94
459.00	164.82
460.00	164.28
461.00	164.90
462.00	166.13
463.00	165.84
464.00	167.39
465.00	167.23
466.00	166.85
467.00	169.32
468.00	168.75
469.00	168.91
470.00	169.04
471.00	168.66
472.00	168.64
473.00	169.09
474.00	169.60
475.00	170.33
476.00	170.11
477.00	171.13
478.00	171.28
479.00	172.60
480.00	172.23
481.00	171.81
482.00	173.07
483.00	172.98
484.00	174.76
485.00	175.88
486.00	175.65
487.00	176.26
488.00	175.50
489.00	177.51
490.00	178.89
491.00	178.93
492.00	180.75
493.00	180.90
494.00	182.40
495.00	181.65
496.00	183.63
497.00	184.72
498.00	185.65
499.00	184.98
500.00	185.59
501.00	185.03
502.00	185.31
503.00	186.07
504.00	187.08
505.00	186.13
506.00	186.57
507.00	187.00
508.00	189.15
509.00	186.67
510.00	187.27
511.00	186.03
512.00	186.71
513.00	187.37
514.00	187.37
515.00	187.38
516.00	187.10
517.00	188.11
518.00	186.94
519.00	189.67
520.00	189.26
521.00	189.19
522.00	189.49
523.00	190.09
524.00	189.80
525.00	190.39
526.00	191.15
527.00	192.10
528.00	192.74
529.00	194.65
530.00	192.79
531.00	193.48
532.00	194.82
533.00	196.15
534.00	197.28
535.00	199.06
536.00	198.06
537.00	198.60
538.00	198.69
539.00	201.39
540.00	201.21
541.00	200.73
542.00	200.45
543.00	201.02
544.00	200.00
545.00	201.50
546.00	201.08
547.00	205.55
548.00	202.44
549.00	201.10
550.00	202.05
551.00	202.34
552.00	200.90
553.00	201.23
554.00	201.73
555.00	202.31
556.00	202.69
557.00	202.15
558.00	202.66
559.00	203.84
560.00	204.38
561.00	201.93
562.00	204.47
563.00	204.79
564.00	205.08
565.00	206.67
566.00	205.67
567.00	206.72
568.00	207.33
569.00	207.56
570.00	209.46
571.00	209.34
572.00	211.00
573.00	211.16
574.00	211.74
575.00	212.81
576.00	213.23
577.00	212.99
578.00	216.98
579.00	216.71
580.00	217.64
581.00	218.15
582.00	218.32
583.00	219.40
584.00	221.01
585.00	220.92
586.00	221.69
587.00	221.47
588.00	220.92
589.00	221.94
590.00	222.32
591.00	222.11
592.00	222.56
593.00	220.92
594.00	221.39
595.00	220.46
596.00	220.04
597.00	221.21
598.00	221.16
599.00	221.42
600.00	220.08
601.00	220.19
602.00	219.86
603.00	220.98
604.00	220.27
605.00	221.71
606.00	221.01
607.00	220.03
608.00	221.42
609.00	220.78
610.00	220.15
611.00	221.24
612.00	221.83
613.00	220.15
614.00	221.31
615.00	220.72
616.00	222.82
617.00	221.00
618.00	223.02
619.00	222.69
620.00	222.49
621.00	223.93
622.00	223.66
623.00	222.54
624.00	224.00
625.00	225.53
626.00	225.79
627.00	228.23
628.00	226.42
629.00	225.58
630.00	226.26
631.00	227.16
632.00	227.51
633.00	227.01
634.00	227.34
635.00	228.40
636.00	227.18
637.00	228.36
638.00	228.51
639.00	227.47
640.00	227.02
641.00	227.03
642.00	225.66
643.00	226.12
644.00	225.71
645.00	225.70
646.00	225.41
647.00	224.66
648.00	223.15
649.00	222.90
650.00	221.31
651.00	220.65
652.00	220.62
653.00	220.61
654.00	220.04
655.00	218.63
656.00	218.49
657.00	217.47
658.00	219.34
659.00	215.28
660.00	216.79
661.00	215.07
662.00	214.31
663.00	213.82
664.00	214.12
665.00	214.10
666.00	213.40
667.00	211.29
668.00	213.95
669.00	211.79
670.00	210.91
671.00	210.27
672.00	208.94
673.00	208.68
674.00	209.91
675.00	208.73
676.00	209.19
677.00	208.04
678.00	206.99
679.00	206.93
680.00	206.41
681.00	207.82
682.00	207.33
683.00	205.17
684.00	205.20
685.00	204.72
686.00	205.32
687.00	204.18
688.00	203.16
689.00	201.96
690.00	202.94
691.00	201.39
692.00	201.52
693.00	202.22
694.00	200.62
695.00	199.57
696.00	199.78
697.00	199.80
698.00	198.17
699.00	197.48
700.00	196.72
701.00	196.31
702.00	194.80
703.00	199.18
704.00	193.27
705.00	192.58
706.00	192.95
707.00	190.14
708.00	189.20
709.00	188.10
710.00	187.10
711.00	186.03
712.00	183.38
713.00	182.94
714.00	181.09
715.00	180.36
716.00	180.23
717.00	178.50
718.00	177.48
719.00	175.29
720.00	173.91
721.00	173.33
722.00	173.30
723.00	172.29
724.00	170.63
725.00	169.33
726.00	168.87
727.00	166.94
728.00	165.96
729.00	164.86
730.00	164.97
731.00	163.71
732.00	165.66
733.00	162.74
734.00	162.87
735.00	161.33
736.00	161.03
737.00	160.18
738.00	160.79
739.00	159.24
740.00	160.18
741.00	158.85
742.00	158.69
743.00	158.75
744.00	159.22
745.00	159.11
746.00	159.06
747.00	158.11
748.00	158.44
749.00	157.69
750.00	157.99
751.00	158.26
752.00	158.02
753.00	157.53
754.00	158.94
755.00	156.94
756.00	157.24
757.00	157.75
758.00	158.89
759.00	156.67
760.00	156.90
761.00	157.04
762.00	156.18
763.00	157.92
764.00	156.48
765.00	158.45
766.00	157.64
767.00	157.64
768.00	157.07
769.00	156.52
770.00	157.42
771.00	156.68
772.00	155.67
773.00	157.31
774.00	157.12
775.00	157.90
776.00	156.08
777.00	156.91
778.00	157.09
779.00	155.95
780.00	156.81
781.00	156.87
782.00	157.47
783.00	159.37
784.00	156.22
785.00	158.12
786.00	157.84
787.00	158.61
788.00	156.64
789.00	157.55
790.00	158.19
791.00	155.66
792.00	156.98
793.00	157.46
794.00	156.78
795.00	156.43
796.00	157.81
797.00	155.92
798.00	157.59
799.00	156.73
800.00	156.74
801.00	157.21
802.00	156.05
803.00	156.89
804.00	157.96
805.00	157.18
806.00	156.83
807.00	156.75
808.00	155.37
809.00	156.54
810.00	157.50
811.00	157.29
812.00	156.66
813.00	157.91
814.00	156.82
815.00	157.88
816.00	157.23
817.00	157.89
818.00	156.67
819.00	156.59
820.00	156.83
821.00	156.49
822.00	157.55
823.00	156.81
824.00	156.09
825.00	157.51
826.00	156.90
827.00	157.03
828.00	157.39
829.00	156.18
830.00	158.04
831.00	157.22
832.00	157.41
833.00	156.74
834.00	156.07
835.00	157.42
836.00	157.18
837.00	156.44
838.00	157.16
839.00	156.72
840.00	156.78
841.00	157.18
842.00	157.41
843.00	155.41
844.00	157.29
845.00	157.69
846.00	156.63
847.00	156.36
848.00	156.49
849.00	156.34
850.00	165.72
851.00	156.04
852.00	156.22
853.00	157.29
854.00	157.75
855.00	159.00
856.00	157.39
857.00	157.74
858.00	158.51
859.00	157.01
860.00	157.16
861.00	157.07
862.00	156.66
863.00	156.53
864.00	156.74
865.00	156.53
866.00	156.33
867.00	157.36
868.00	158.70
869.00	157.32
870.00	157.62
871.00	156.67
872.00	158.28
873.00	157.93
874.00	157.16
875.00	156.54
876.00	156.68
877.00	156.60
878.00	157.51
879.00	155.72
880.00	157.61
881.00	156.93
882.00	155.87
883.00	156.74
884.00	157.51
885.00	156.62
886.00	156.08
887.00	157.19
888.00	156.78
889.00	155.72
890.00	157.55
891.00	157.12
892.00	159.12
893.00	156.62
894.00	157.46
895.00	157.35
896.00	157.67
897.00	157.65
898.00	156.45
899.00	157.49
900.00	156.83
901.00	158.33
902.00	156.13
903.00	157.56
904.00	156.08
905.00	159.73
906.00	158.13
907.00	157.27
908.00	156.92
909.00	156.68
910.00	158.65
911.00	157.75
912.00	158.67
913.00	156.49
914.00	156.87
915.00	157.67
916.00	157.55
917.00	156.35
918.00	157.26
919.00	163.04
920.00	157.63
921.00	157.35
922.00	156.27
923.00	156.10
924.00	157.38
925.00	160.42
926.00	158.33
927.00	156.15
928.00	158.72
929.00	156.46
930.00	157.01
931.00	158.30
932.00	157.23
933.00	159.59
934.00	156.73
935.00	156.69
936.00	156.94
937.00	158.14
938.00	158.39
939.00	157.09
940.00	157.20
941.00	158.17
942.00	159.14
943.00	157.54
944.00	157.29
945.00	157.34
946.00	157.87
947.00	156.24
948.00	156.88
949.00	155.99
950.00	157.60
951.00	157.31
952.00	157.39
953.00	157.34
954.00	157.42
955.00	156.89
956.00	158.09
957.00	157.67
958.00	156.87
959.00	157.60
960.00	158.86
961.00	157.76
962.00	158.44
963.00	157.33
964.00	157.24
965.00	157.63
966.00	157.89
967.00	157.64
968.00	159.22
969.00	159.67
970.00	157.18
971.00	156.55
972.00	159.50
973.00	157.63
974.00	157.94
975.00	156.60
976.00	158.00
977.00	157.12
978.00	157.18
979.00	157.57
980.00	157.32
981.00	157.14
982.00	157.92
983.00	156.16
984.00	153.87
985.00	157.60
986.00	157.63
987.00	157.65
988.00	158.31
989.00	157.75
990.00	157.48
991.00	157.53
992.00	157.52
993.00	157.73
994.00	156.55
995.00	157.66
996.00	159.21
997.00	158.69
998.00	157.71
999.00	158.34
1000.00	157.12
>>>>>End Processed Spectral Data<<<<<
