SpectraSuite Data File
++++++++++++++++++++++++++++++++++++
Date: Tue Aug 04 11:22:04 PDT 2026
User: Stephen Warren
Dark Spectrum Present: No
Reference Spectrum Present: No
Number of Sampled Component Spectra: 1
Spectrometers: USB2G24357
Integration Time (usec): 48000 (USB2G24357)
Spectra Averaged: 200 (USB2G24357)
Boxcar Smoothing: 0 (USB2G24357)
Correct for Electrical Dark: No (USB2G24357)
Strobe/Lamp Enabled: No (USB2G24357)
Correct for Detector Non-linearity: No (USB2G24357)
Correct for Stray Light: No (USB2G24357)
Number of Pixels in Processed Spectrum: 651
>>>>>Begin Processed Spectral Data<<<<<
350.00	163.47
351.00	164.12
352.00	164.70
353.00	165.11
354.00	165.08
355.00	164.85
356.00	164.40
357.00	164.28
358.00	166.39
359.00	164.95
360.00	164.61
361.00	165.60
362.00	164.86
363.00	164.68
364.00	165.42
365.00	164.70
366.00	165.66
367.00	166.21
368.00	166.02
369.00	166.23
370.00	165.52
371.00	166.12
372.00	165.96
373.00	166.91
374.00	165.45
375.00	165.06
376.00	164.95
377.00	166.22
378.00	166.24
379.00	166.21
380.00	165.48
381.00	166.99
382.00	165.85
383.00	165.28
384.00	165.59
385.00	165.54
386.00	165.97
387.00	165.99
388.00	165.62
389.00	166.33
390.00	165.28
391.00	165.90
392.00	166.39
393.00	167.11
394.00	166.30
395.00	169.00
396.00	165.35
397.00	165.91
398.00	166.28
399.00	166.03
400.00	165.99
401.00	165.65
402.00	166.14
403.00	166.51
404.00	165.41
405.00	166.49
406.00	165.97
407.00	166.67
408.00	166.27
409.00	167.23
410.00	165.99
411.00	165.64
412.00	166.87
413.00	167.37
414.00	167.10
415.00	166.82
416.00	167.25
417.00	166.00
418.00	166.07
419.00	168.28
420.00	167.38
421.00	167.40
422.00	166.59
423.00	166.30
424.00	166.14
425.00	166.67
426.00	166.43
427.00	167.23
428.00	166.29
429.00	166.67
430.00	166.08
431.00	166.17
432.00	166.54
433.00	166.38
434.00	167.63
435.00	166.95
436.00	166.55
437.00	167.23
438.00	167.03
439.00	167.20
440.00	166.73
441.00	166.28
442.00	166.34
443.00	167.63
444.00	166.27
445.00	166.63
446.00	166.39
447.00	166.42
448.00	166.69
449.00	167.93
450.00	167.43
451.00	166.45
452.00	166.52
453.00	166.36
454.00	166.50
455.00	166.65
456.00	166.86
457.00	167.72
458.00	167.57
459.00	167.25
460.00	166.56
461.00	166.95
462.00	168.05
463.00	167.12
464.00	167.83
465.00	167.11
466.00	166.76
467.00	168.93
468.00	167.93
469.00	167.73
470.00	167.55
471.00	167.27
472.00	167.48
473.00	167.84
474.00	168.02
475.00	168.02
476.00	167.78
477.00	168.26
478.00	168.06
479.00	168.77
480.00	168.42
481.00	167.63
482.00	168.38
483.00	167.67
484.00	168.73
485.00	169.39
486.00	168.90
487.00	168.75
488.00	167.79
489.00	168.94
490.00	169.39
491.00	168.67
492.00	169.92
493.00	169.76
494.00	169.88
495.00	169.55
496.00	170.19
497.00	170.79
498.00	171.33
499.00	170.41
500.00	170.67
501.00	169.64
502.00	170.42
503.00	170.49
504.00	171.19
505.00	170.82
506.00	171.19
507.00	171.02
508.00	173.18
509.00	171.08
510.00	172.11
511.00	170.57
512.00	171.19
513.00	171.27
514.00	171.32
515.00	170.93
516.00	170.86
517.00	171.29
518.00	170.27
519.00	172.48
520.00	171.62
521.00	171.13
522.00	171.26
523.00	171.44
524.00	171.04
525.00	171.20
526.00	171.52
527.00	171.83
528.00	172.40
529.00	173.39
530.00	171.66
531.00	172.34
532.00	172.53
533.00	173.05
534.00	172.93
535.00	173.92
536.00	172.94
537.00	172.96
538.00	172.41
539.00	174.10
540.00	174.18
541.00	173.40
542.00	173.52
543.00	173.32
544.00	173.19
545.00	174.20
546.00	173.99
547.00	176.80
548.00	174.42
549.00	174.08
550.00	174.49
551.00	174.51
552.00	173.52
553.00	173.71
554.00	173.77
555.00	174.40
556.00	174.62
557.00	173.51
558.00	174.09
559.00	175.21
560.00	176.23
561.00	173.93
562.00	174.76
563.00	175.23
564.00	174.82
565.00	176.15
566.00	175.27
567.00	175.96
568.00	175.74
569.00	176.08
570.00	176.83
571.00	175.89
572.00	176.67
573.00	176.27
574.00	176.31
575.00	176.96
576.00	176.33
577.00	175.83
578.00	178.31
579.00	177.98
580.00	178.46
581.00	178.14
582.00	178.05
583.00	178.31
584.00	179.01
585.00	179.07
586.00	178.90
587.00	178.63
588.00	178.93
589.00	179.32
590.00	179.09
591.00	179.28
592.00	179.84
593.00	178.46
594.00	179.60
595.00	178.92
596.00	178.40
597.00	179.35
598.00	179.78
599.00	179.63
600.00	178.83
601.00	178.78
602.00	179.34
603.00	179.80
604.00	179.69
605.00	180.24
606.00	179.99
607.00	178.53
608.00	180.13
609.00	180.00
610.00	179.02
611.00	179.73
612.00	179.96
613.00	179.37
614.00	179.72
615.00	179.64
616.00	180.98
617.00	179.33
618.00	180.46
619.00	180.34
620.00	179.61
621.00	180.48
622.00	180.25
623.00	179.95
624.00	180.30
625.00	181.44
626.00	181.18
627.00	182.84
628.00	180.94
629.00	181.09
630.00	180.42
631.00	181.40
632.00	181.70
633.00	180.62
634.00	181.37
635.00	181.92
636.00	181.29
637.00	181.86
638.00	182.36
639.00	181.43
640.00	181.04
641.00	181.50
642.00	180.75
643.00	181.30
644.00	180.88
645.00	181.22
646.00	181.42
647.00	181.20
648.00	180.59
649.00	180.90
650.00	179.86
651.00	179.75
652.00	179.74
653.00	180.24
654.00	180.22
655.00	180.23
656.00	179.71
657.00	179.48
658.00	180.93
659.00	178.82
660.00	179.99
661.00	178.69
662.00	178.69
663.00	178.45
664.00	178.98
665.00	179.39
666.00	178.42
667.00	178.29
668.00	179.83
669.00	178.35
670.00	178.38
671.00	178.06
672.00	177.85
673.00	177.45
674.00	178.36
675.00	178.55
676.00	178.30
677.00	177.89
678.00	177.32
679.00	177.37
680.00	176.84
681.00	178.42
682.00	178.43
683.00	176.51
684.00	177.34
685.00	176.67
686.00	177.51
687.00	177.23
688.00	176.04
689.00	176.30
690.00	176.41
691.00	175.33
692.00	176.35
693.00	177.10
694.00	175.99
695.00	175.35
696.00	175.97
697.00	176.06
698.00	175.27
699.00	175.33
700.00	175.36
701.00	175.17
702.00	174.56
703.00	178.98
704.00	173.75
705.00	174.52
706.00	175.10
707.00	173.24
708.00	173.61
709.00	173.23
710.00	173.11
711.00	172.94
712.00	171.49
713.00	172.02
714.00	171.09
715.00	171.01
716.00	171.29
717.00	171.51
718.00	171.33
719.00	169.93
720.00	169.77
721.00	169.30
722.00	169.86
723.00	169.90
724.00	169.17
725.00	168.45
726.00	168.82
727.00	168.31
728.00	167.92
729.00	166.80
730.00	167.64
731.00	167.28
732.00	168.91
733.00	167.08
734.00	166.89
735.00	166.56
736.00	166.26
737.00	165.79
738.00	166.53
739.00	165.69
740.00	166.67
741.00	165.51
742.00	165.80
743.00	165.70
744.00	166.47
745.00	166.01
746.00	166.27
747.00	165.41
748.00	165.50
749.00	165.08
750.00	166.11
751.00	165.97
752.00	165.57
753.00	165.52
754.00	166.71
755.00	164.86
756.00	165.04
757.00	165.52
758.00	166.44
759.00	164.99
760.00	165.40
761.00	165.01
762.00	164.57
763.00	166.24
764.00	164.79
765.00	166.36
766.00	165.49
767.00	165.82
768.00	164.98
769.00	165.04
770.00	165.37
771.00	165.03
772.00	164.43
773.00	165.48
774.00	165.33
775.00	166.06
776.00	164.56
777.00	165.01
778.00	165.31
779.00	164.57
780.00	165.08
781.00	165.11
782.00	165.65
783.00	167.30
784.00	164.66
785.00	165.96
786.00	165.77
787.00	166.29
788.00	164.87
789.00	165.70
790.00	166.33
791.00	164.52
792.00	165.45
793.00	165.85
794.00	165.29
795.00	164.44
796.00	166.21
797.00	164.55
798.00	166.10
799.00	164.97
800.00	165.54
801.00	165.66
802.00	164.63
803.00	165.67
804.00	166.09
805.00	165.25
806.00	165.39
807.00	165.34
808.00	164.47
809.00	165.23
810.00	166.20
811.00	165.40
812.00	165.54
813.00	166.69
814.00	165.16
815.00	166.09
816.00	165.61
817.00	166.11
818.00	165.18
819.00	165.50
820.00	165.18
821.00	165.13
822.00	165.80
823.00	165.17
824.00	165.30
825.00	165.74
826.00	165.83
827.00	165.53
828.00	165.76
829.00	165.36
830.00	166.61
831.00	165.64
832.00	165.97
833.00	165.09
834.00	164.92
835.00	165.68
836.00	165.24
837.00	164.87
838.00	165.41
839.00	164.87
840.00	165.15
841.00	165.50
842.00	165.92
843.00	164.33
844.00	166.07
845.00	165.96
846.00	165.04
847.00	164.75
848.00	165.16
849.00	165.12
850.00	173.11
851.00	164.85
852.00	164.43
853.00	165.72
854.00	165.78
855.00	166.92
856.00	165.83
857.00	166.66
858.00	166.76
859.00	165.12
860.00	165.78
861.00	165.40
862.00	165.38
863.00	165.48
864.00	165.19
865.00	165.12
866.00	165.04
867.00	165.83
868.00	167.09
869.00	165.58
870.00	165.75
871.00	165.30
872.00	166.79
873.00	166.00
874.00	165.60
875.00	164.72
876.00	164.77
877.00	165.60
878.00	166.07
879.00	164.40
880.00	166.02
881.00	165.79
882.00	164.18
883.00	165.03
884.00	165.93
885.00	165.19
886.00	164.95
887.00	165.40
888.00	165.23
889.00	164.23
890.00	165.98
891.00	165.43
892.00	167.55
893.00	164.85
894.00	165.44
895.00	165.85
896.00	165.98
897.00	165.97
898.00	165.37
899.00	166.06
900.00	165.41
901.00	167.19
902.00	164.41
903.00	165.90
904.00	165.10
905.00	167.39
906.00	166.37
907.00	165.57
908.00	165.18
909.00	164.94
910.00	166.99
911.00	166.55
912.00	167.19
913.00	164.68
914.00	164.98
915.00	166.76
916.00	166.04
917.00	164.79
918.00	165.58
919.00	167.38
920.00	165.56
921.00	165.94
922.00	164.87
923.00	164.88
924.00	166.04
925.00	168.89
926.00	166.67
927.00	164.65
928.00	167.12
929.00	164.91
930.00	165.71
931.00	166.48
932.00	165.65
933.00	167.86
934.00	165.52
935.00	165.11
936.00	165.58
937.00	166.47
938.00	166.93
939.00	165.57
940.00	165.75
941.00	166.40
942.00	167.38
943.00	166.17
944.00	165.46
945.00	165.65
946.00	166.04
947.00	165.56
948.00	165.45
949.00	164.85
950.00	165.86
951.00	166.24
952.00	165.77
953.00	165.38
954.00	165.46
955.00	165.29
956.00	167.24
957.00	166.17
958.00	165.22
959.00	166.04
960.00	167.07
961.00	166.48
962.00	167.28
963.00	165.61
964.00	165.91
965.00	166.01
966.00	165.94
967.00	165.87
968.00	167.60
969.00	167.92
970.00	165.50
971.00	165.09
972.00	167.83
973.00	165.85
974.00	166.10
975.00	165.31
976.00	166.59
977.00	166.06
978.00	165.94
979.00	166.09
980.00	166.30
981.00	165.27
982.00	166.56
983.00	164.81
984.00	162.38
985.00	165.53
986.00	165.48
987.00	166.28
988.00	166.71
989.00	165.87
990.00	165.77
991.00	165.77
992.00	165.75
993.00	166.06
994.00	165.48
995.00	166.34
996.00	167.44
997.00	166.46
998.00	166.57
999.00	166.57
1000.00	165.21
>>>>>End Processed Spectral Data<<<<<
