SpectraSuite Data File
++++++++++++++++++++++++++++++++++++
Date: Wed Jul 15 14:47:07 PDT 2026
User: Stephen Warren
Dark Spectrum Present: No
Reference Spectrum Present: No
Number of Sampled Component Spectra: 1
Spectrometers: USB2G24357
Integration Time (usec): 48000 (USB2G24357)
Spectra Averaged: 200 (USB2G24357)
Boxcar Smoothing: 0 (USB2G24357)
Correct for Electrical Dark: No (USB2G24357)
Strobe/Lamp Enabled: No (USB2G24357)
Correct for Detector Non-linearity: No (USB2G24357)
Correct for Stray Light: No (USB2G24357)
Number of Pixels in Processed Spectrum: 651
>>>>>Begin Processed Spectral Data<<<<<
350.00	148.00
351.00	148.55
352.00	149.58
353.00	149.68
354.00	149.70
355.00	149.83
356.00	149.03
357.00	148.65
358.00	150.94
359.00	149.22
360.00	149.07
361.00	150.33
362.00	149.37
363.00	148.90
364.00	149.97
365.00	149.34
366.00	150.02
367.00	150.81
368.00	150.91
369.00	151.00
370.00	150.59
371.00	150.96
372.00	150.27
373.00	152.09
374.00	150.02
375.00	149.61
376.00	149.57
377.00	150.73
378.00	151.13
379.00	150.81
380.00	150.05
381.00	151.34
382.00	150.49
383.00	149.76
384.00	150.15
385.00	150.39
386.00	150.40
387.00	150.23
388.00	149.94
389.00	150.44
390.00	149.79
391.00	150.53
392.00	151.17
393.00	151.79
394.00	150.66
395.00	153.97
396.00	150.76
397.00	150.22
398.00	150.88
399.00	150.34
400.00	149.89
401.00	150.05
402.00	150.40
403.00	150.75
404.00	150.21
405.00	150.82
406.00	150.22
407.00	151.09
408.00	150.78
409.00	151.81
410.00	150.35
411.00	149.77
412.00	151.17
413.00	151.53
414.00	151.96
415.00	151.26
416.00	151.73
417.00	150.68
418.00	150.39
419.00	152.87
420.00	151.61
421.00	151.95
422.00	151.03
423.00	150.81
424.00	150.65
425.00	150.97
426.00	150.61
427.00	151.78
428.00	150.42
429.00	150.60
430.00	150.91
431.00	150.39
432.00	150.70
433.00	150.73
434.00	151.53
435.00	151.29
436.00	150.86
437.00	151.38
438.00	151.68
439.00	151.08
440.00	150.78
441.00	150.02
442.00	150.30
443.00	152.10
444.00	150.19
445.00	150.64
446.00	150.65
447.00	150.05
448.00	150.54
449.00	152.41
450.00	151.08
451.00	150.30
452.00	150.20
453.00	149.82
454.00	150.27
455.00	150.28
456.00	150.74
457.00	151.56
458.00	151.03
459.00	150.83
460.00	149.98
461.00	150.37
462.00	151.12
463.00	150.17
464.00	151.72
465.00	150.32
466.00	150.15
467.00	152.24
468.00	151.14
469.00	150.80
470.00	151.10
471.00	150.50
472.00	150.03
473.00	150.79
474.00	150.90
475.00	151.27
476.00	150.35
477.00	150.64
478.00	150.71
479.00	151.50
480.00	150.77
481.00	150.31
482.00	150.85
483.00	150.20
484.00	151.16
485.00	151.74
486.00	151.02
487.00	150.71
488.00	149.17
489.00	150.95
490.00	150.94
491.00	150.33
492.00	151.58
493.00	151.04
494.00	151.66
495.00	150.39
496.00	151.52
497.00	152.36
498.00	152.02
499.00	151.28
500.00	151.47
501.00	150.32
502.00	150.56
503.00	151.08
504.00	152.15
505.00	151.53
506.00	151.72
507.00	152.05
508.00	154.51
509.00	151.64
510.00	152.59
511.00	150.98
512.00	151.70
513.00	151.92
514.00	151.76
515.00	151.49
516.00	151.46
517.00	151.62
518.00	150.00
519.00	152.65
520.00	151.79
521.00	151.00
522.00	151.50
523.00	151.41
524.00	151.17
525.00	150.99
526.00	151.36
527.00	152.08
528.00	152.05
529.00	152.89
530.00	151.41
531.00	151.42
532.00	151.32
533.00	151.99
534.00	152.00
535.00	153.01
536.00	151.53
537.00	151.82
538.00	150.98
539.00	152.82
540.00	152.71
541.00	151.59
542.00	152.15
543.00	151.79
544.00	150.71
545.00	152.43
546.00	152.12
547.00	155.70
548.00	152.71
549.00	151.67
550.00	152.98
551.00	152.66
552.00	151.43
553.00	152.15
554.00	151.64
555.00	152.17
556.00	152.16
557.00	151.42
558.00	152.19
559.00	153.49
560.00	154.18
561.00	151.10
562.00	152.65
563.00	152.49
564.00	152.58
565.00	153.60
566.00	151.84
567.00	153.23
568.00	152.78
569.00	152.80
570.00	155.18
571.00	152.92
572.00	152.95
573.00	152.61
574.00	152.97
575.00	152.32
576.00	152.13
577.00	151.27
578.00	154.13
579.00	152.88
580.00	153.44
581.00	153.02
582.00	152.70
583.00	153.06
584.00	154.15
585.00	153.96
586.00	153.43
587.00	153.86
588.00	153.24
589.00	153.47
590.00	153.73
591.00	153.93
592.00	154.24
593.00	152.82
594.00	154.18
595.00	153.00
596.00	152.55
597.00	153.74
598.00	154.13
599.00	154.68
600.00	153.46
601.00	153.35
602.00	154.40
603.00	154.34
604.00	154.10
605.00	155.58
606.00	155.10
607.00	153.54
608.00	155.17
609.00	154.73
610.00	154.02
611.00	154.22
612.00	154.64
613.00	153.72
614.00	153.83
615.00	153.35
616.00	155.26
617.00	153.65
618.00	155.75
619.00	154.77
620.00	153.85
621.00	154.70
622.00	154.01
623.00	153.63
624.00	153.92
625.00	155.13
626.00	154.94
627.00	156.90
628.00	154.76
629.00	154.45
630.00	154.08
631.00	155.51
632.00	154.88
633.00	153.66
634.00	154.70
635.00	155.75
636.00	154.02
637.00	155.24
638.00	155.47
639.00	155.10
640.00	154.17
641.00	155.40
642.00	154.66
643.00	155.50
644.00	154.33
645.00	155.44
646.00	155.23
647.00	155.48
648.00	154.69
649.00	154.61
650.00	154.35
651.00	154.48
652.00	154.02
653.00	154.98
654.00	155.05
655.00	155.24
656.00	154.94
657.00	154.89
658.00	156.57
659.00	153.83
660.00	155.33
661.00	154.05
662.00	154.71
663.00	154.69
664.00	154.90
665.00	155.20
666.00	154.35
667.00	154.27
668.00	156.09
669.00	154.39
670.00	154.52
671.00	154.73
672.00	154.71
673.00	153.77
674.00	155.42
675.00	155.48
676.00	155.20
677.00	154.58
678.00	153.96
679.00	154.13
680.00	153.63
681.00	155.66
682.00	155.93
683.00	154.11
684.00	154.66
685.00	153.91
686.00	155.34
687.00	154.47
688.00	153.34
689.00	153.04
690.00	154.57
691.00	152.94
692.00	153.65
693.00	154.90
694.00	153.34
695.00	153.19
696.00	153.77
697.00	154.06
698.00	153.59
699.00	153.24
700.00	153.84
701.00	153.82
702.00	153.09
703.00	158.73
704.00	153.29
705.00	153.49
706.00	154.98
707.00	152.84
708.00	153.02
709.00	153.30
710.00	152.74
711.00	153.15
712.00	151.99
713.00	152.50
714.00	151.80
715.00	152.12
716.00	152.95
717.00	152.46
718.00	152.77
719.00	151.11
720.00	151.16
721.00	151.49
722.00	152.41
723.00	152.86
724.00	151.16
725.00	151.26
726.00	151.75
727.00	151.32
728.00	150.83
729.00	150.28
730.00	151.46
731.00	150.63
732.00	152.94
733.00	150.53
734.00	151.49
735.00	151.01
736.00	150.32
737.00	150.08
738.00	150.78
739.00	149.66
740.00	151.34
741.00	149.92
742.00	149.91
743.00	149.99
744.00	151.04
745.00	150.82
746.00	150.76
747.00	149.70
748.00	150.29
749.00	149.60
750.00	150.34
751.00	150.44
752.00	150.30
753.00	149.88
754.00	151.50
755.00	149.31
756.00	149.89
757.00	150.35
758.00	151.70
759.00	149.53
760.00	149.58
761.00	150.03
762.00	148.77
763.00	150.31
764.00	149.63
765.00	151.72
766.00	150.11
767.00	150.42
768.00	149.95
769.00	149.44
770.00	149.70
771.00	150.27
772.00	148.86
773.00	150.43
774.00	150.17
775.00	150.79
776.00	149.04
777.00	149.35
778.00	150.15
779.00	149.02
780.00	149.41
781.00	150.00
782.00	150.40
783.00	152.14
784.00	148.97
785.00	151.10
786.00	151.12
787.00	151.24
788.00	149.17
789.00	150.52
790.00	151.57
791.00	149.05
792.00	150.47
793.00	150.69
794.00	149.83
795.00	149.30
796.00	150.87
797.00	148.83
798.00	150.44
799.00	150.15
800.00	149.84
801.00	150.85
802.00	149.26
803.00	150.38
804.00	151.20
805.00	150.06
806.00	150.24
807.00	150.36
808.00	148.97
809.00	149.79
810.00	150.79
811.00	150.30
812.00	150.14
813.00	151.64
814.00	150.25
815.00	150.90
816.00	150.21
817.00	151.50
818.00	149.79
819.00	150.01
820.00	149.68
821.00	149.56
822.00	151.04
823.00	149.83
824.00	149.31
825.00	151.41
826.00	150.56
827.00	149.87
828.00	151.16
829.00	149.64
830.00	151.46
831.00	150.73
832.00	150.93
833.00	150.04
834.00	149.07
835.00	150.72
836.00	149.93
837.00	149.50
838.00	150.68
839.00	150.06
840.00	149.67
841.00	150.65
842.00	151.00
843.00	148.64
844.00	150.62
845.00	150.98
846.00	150.00
847.00	149.61
848.00	149.66
849.00	149.65
850.00	159.94
851.00	149.36
852.00	149.21
853.00	150.56
854.00	151.15
855.00	152.12
856.00	150.76
857.00	151.51
858.00	151.75
859.00	149.88
860.00	150.46
861.00	150.55
862.00	149.81
863.00	150.10
864.00	150.22
865.00	149.92
866.00	149.32
867.00	150.28
868.00	152.09
869.00	150.54
870.00	150.92
871.00	149.90
872.00	152.12
873.00	151.24
874.00	150.40
875.00	149.97
876.00	149.80
877.00	150.18
878.00	150.61
879.00	149.25
880.00	150.96
881.00	150.84
882.00	149.14
883.00	149.94
884.00	150.72
885.00	149.84
886.00	149.27
887.00	150.27
888.00	149.98
889.00	149.15
890.00	150.77
891.00	150.75
892.00	152.51
893.00	150.34
894.00	150.45
895.00	151.00
896.00	150.84
897.00	151.20
898.00	150.17
899.00	151.61
900.00	150.04
901.00	152.03
902.00	148.80
903.00	150.26
904.00	149.46
905.00	153.09
906.00	151.33
907.00	151.18
908.00	150.23
909.00	149.89
910.00	152.33
911.00	151.01
912.00	152.84
913.00	149.54
914.00	150.67
915.00	151.72
916.00	150.90
917.00	149.39
918.00	150.87
919.00	156.73
920.00	151.31
921.00	150.78
922.00	149.86
923.00	149.51
924.00	150.91
925.00	154.74
926.00	151.87
927.00	149.55
928.00	152.14
929.00	149.46
930.00	150.26
931.00	152.18
932.00	150.36
933.00	152.95
934.00	150.29
935.00	149.92
936.00	150.31
937.00	151.70
938.00	151.91
939.00	150.68
940.00	150.52
941.00	151.43
942.00	153.16
943.00	151.03
944.00	150.98
945.00	150.59
946.00	151.26
947.00	149.98
948.00	150.50
949.00	149.51
950.00	150.77
951.00	151.03
952.00	151.28
953.00	150.57
954.00	150.66
955.00	150.32
956.00	152.41
957.00	151.23
958.00	150.54
959.00	150.98
960.00	152.19
961.00	151.31
962.00	152.66
963.00	150.35
964.00	150.82
965.00	151.02
966.00	151.49
967.00	150.66
968.00	152.90
969.00	153.01
970.00	150.59
971.00	149.79
972.00	152.95
973.00	151.10
974.00	151.48
975.00	150.40
976.00	151.42
977.00	150.60
978.00	150.58
979.00	151.14
980.00	150.56
981.00	150.39
982.00	151.46
983.00	149.54
984.00	148.75
985.00	151.40
986.00	150.48
987.00	151.21
988.00	151.82
989.00	150.98
990.00	150.66
991.00	150.99
992.00	151.31
993.00	150.92
994.00	149.98
995.00	151.31
996.00	152.86
997.00	153.80
998.00	151.52
999.00	151.58
1000.00	150.16
>>>>>End Processed Spectral Data<<<<<
