SpectraSuite Data File
++++++++++++++++++++++++++++++++++++
Date: Thu Jun 25 11:53:05 PDT 2026
User: Stephen Warren
Dark Spectrum Present: No
Reference Spectrum Present: No
Number of Sampled Component Spectra: 1
Spectrometers: USB2G24357
Integration Time (usec): 48000 (USB2G24357)
Spectra Averaged: 200 (USB2G24357)
Boxcar Smoothing: 0 (USB2G24357)
Correct for Electrical Dark: No (USB2G24357)
Strobe/Lamp Enabled: No (USB2G24357)
Correct for Detector Non-linearity: No (USB2G24357)
Correct for Stray Light: No (USB2G24357)
Number of Pixels in Processed Spectrum: 651
>>>>>Begin Processed Spectral Data<<<<<
350.00	171.35
351.00	171.82
352.00	172.60
353.00	172.39
354.00	172.68
355.00	172.35
356.00	171.98
357.00	171.60
358.00	173.67
359.00	172.05
360.00	172.04
361.00	172.90
362.00	172.79
363.00	172.06
364.00	172.53
365.00	172.88
366.00	173.36
367.00	173.90
368.00	173.52
369.00	173.79
370.00	173.45
371.00	173.46
372.00	173.45
373.00	174.68
374.00	173.23
375.00	172.87
376.00	172.66
377.00	173.67
378.00	174.15
379.00	173.80
380.00	172.89
381.00	174.38
382.00	173.67
383.00	173.53
384.00	173.59
385.00	173.58
386.00	173.94
387.00	174.03
388.00	173.74
389.00	174.70
390.00	174.57
391.00	174.74
392.00	175.84
393.00	176.87
394.00	177.04
395.00	180.21
396.00	178.42
397.00	179.10
398.00	179.95
399.00	180.93
400.00	181.64
401.00	182.13
402.00	183.44
403.00	184.04
404.00	183.66
405.00	185.11
406.00	185.48
407.00	186.71
408.00	187.64
409.00	188.99
410.00	189.82
411.00	191.13
412.00	193.17
413.00	196.11
414.00	198.81
415.00	200.26
416.00	203.54
417.00	204.48
418.00	206.62
419.00	210.79
420.00	211.72
421.00	211.49
422.00	213.26
423.00	214.50
424.00	217.15
425.00	219.42
426.00	220.84
427.00	224.36
428.00	224.41
429.00	227.19
430.00	230.09
431.00	232.66
432.00	237.32
433.00	241.52
434.00	246.14
435.00	250.29
436.00	254.93
437.00	260.10
438.00	265.86
439.00	269.65
440.00	278.48
441.00	281.55
442.00	284.19
443.00	289.83
444.00	293.48
445.00	293.07
446.00	295.28
447.00	299.64
448.00	301.81
449.00	302.89
450.00	303.78
451.00	305.36
452.00	305.89
453.00	312.77
454.00	315.40
455.00	319.74
456.00	325.83
457.00	332.21
458.00	336.91
459.00	343.31
460.00	350.61
461.00	358.65
462.00	367.86
463.00	378.10
464.00	382.77
465.00	392.07
466.00	400.21
467.00	408.30
468.00	417.10
469.00	423.06
470.00	429.50
471.00	434.89
472.00	434.99
473.00	441.05
474.00	444.25
475.00	452.24
476.00	459.74
477.00	464.23
478.00	472.59
479.00	482.68
480.00	489.71
481.00	497.06
482.00	506.10
483.00	518.48
484.00	529.62
485.00	542.98
486.00	553.70
487.00	568.39
488.00	581.83
489.00	596.01
490.00	612.56
491.00	626.73
492.00	643.68
493.00	658.09
494.00	668.80
495.00	683.63
496.00	696.61
497.00	709.30
498.00	718.70
499.00	723.19
500.00	730.43
501.00	732.55
502.00	736.69
503.00	737.07
504.00	736.25
505.00	735.10
506.00	734.70
507.00	735.44
508.00	733.89
509.00	731.36
510.00	730.44
511.00	731.46
512.00	730.13
513.00	728.57
514.00	734.50
515.00	737.65
516.00	739.05
517.00	741.29
518.00	744.88
519.00	753.51
520.00	752.01
521.00	760.04
522.00	764.22
523.00	769.96
524.00	770.91
525.00	779.94
526.00	787.48
527.00	793.24
528.00	800.95
529.00	813.89
530.00	825.10
531.00	831.81
532.00	847.51
533.00	861.70
534.00	874.46
535.00	885.29
536.00	899.32
537.00	906.08
538.00	909.94
539.00	920.62
540.00	921.74
541.00	925.28
542.00	924.76
543.00	925.46
544.00	924.50
545.00	922.38
546.00	918.05
547.00	923.16
548.00	919.25
549.00	917.43
550.00	914.65
551.00	912.78
552.00	908.57
553.00	910.02
554.00	913.54
555.00	915.63
556.00	917.70
557.00	913.38
558.00	914.67
559.00	917.17
560.00	911.40
561.00	915.03
562.00	924.08
563.00	927.28
564.00	932.97
565.00	938.04
566.00	945.73
567.00	947.13
568.00	958.91
569.00	962.78
570.00	974.98
571.00	987.12
572.00	1000.42
573.00	1007.68
574.00	1019.67
575.00	1034.76
576.00	1041.08
577.00	1052.51
578.00	1071.77
579.00	1074.20
580.00	1092.84
581.00	1098.98
582.00	1108.38
583.00	1116.63
584.00	1124.62
585.00	1124.02
586.00	1126.50
587.00	1132.40
588.00	1130.16
589.00	1134.82
590.00	1133.68
591.00	1126.18
592.00	1121.10
593.00	1115.48
594.00	1112.25
595.00	1109.11
596.00	1104.27
597.00	1101.18
598.00	1093.53
599.00	1086.56
600.00	1084.95
601.00	1082.29
602.00	1079.18
603.00	1078.71
604.00	1075.16
605.00	1072.64
606.00	1069.42
607.00	1066.95
608.00	1064.44
609.00	1067.99
610.00	1063.52
611.00	1065.96
612.00	1072.86
613.00	1063.07
614.00	1071.87
615.00	1067.46
616.00	1077.00
617.00	1074.26
618.00	1079.47
619.00	1081.67
620.00	1085.11
621.00	1091.57
622.00	1092.86
623.00	1093.27
624.00	1099.19
625.00	1105.70
626.00	1107.02
627.00	1115.64
628.00	1116.61
629.00	1122.21
630.00	1123.96
631.00	1126.84
632.00	1128.52
633.00	1131.38
634.00	1127.98
635.00	1132.10
636.00	1128.28
637.00	1126.80
638.00	1127.13
639.00	1123.58
640.00	1124.20
641.00	1113.33
642.00	1106.83
643.00	1099.51
644.00	1093.73
645.00	1087.25
646.00	1079.30
647.00	1065.53
648.00	1056.11
649.00	1045.81
650.00	1033.23
651.00	1025.66
652.00	1018.17
653.00	1008.69
654.00	999.62
655.00	990.99
656.00	982.32
657.00	966.84
658.00	963.06
659.00	949.26
660.00	943.93
661.00	934.23
662.00	925.61
663.00	918.34
664.00	912.88
665.00	902.26
666.00	897.83
667.00	886.55
668.00	884.70
669.00	877.86
670.00	869.40
671.00	852.50
672.00	836.73
673.00	832.55
674.00	841.71
675.00	835.17
676.00	831.79
677.00	824.25
678.00	812.55
679.00	810.75
680.00	804.19
681.00	798.02
682.00	792.52
683.00	780.88
684.00	780.51
685.00	772.66
686.00	768.19
687.00	759.12
688.00	754.53
689.00	745.45
690.00	741.03
691.00	733.97
692.00	727.91
693.00	723.50
694.00	712.14
695.00	706.03
696.00	697.98
697.00	688.80
698.00	677.53
699.00	669.79
700.00	656.15
701.00	645.41
702.00	631.01
703.00	624.09
704.00	607.06
705.00	592.01
706.00	580.02
707.00	564.50
708.00	549.47
709.00	534.16
710.00	516.54
711.00	500.73
712.00	484.35
713.00	468.72
714.00	453.73
715.00	437.43
716.00	423.34
717.00	408.76
718.00	393.55
719.00	379.38
720.00	365.43
721.00	352.75
722.00	340.05
723.00	328.70
724.00	316.55
725.00	304.49
726.00	295.07
727.00	284.33
728.00	273.67
729.00	264.43
730.00	257.26
731.00	249.57
732.00	244.41
733.00	235.29
734.00	229.50
735.00	222.37
736.00	217.69
737.00	212.84
738.00	209.98
739.00	205.54
740.00	202.95
741.00	199.04
742.00	197.01
743.00	195.26
744.00	194.32
745.00	191.98
746.00	190.68
747.00	189.01
748.00	187.97
749.00	186.47
750.00	186.29
751.00	185.28
752.00	184.10
753.00	183.41
754.00	183.77
755.00	181.28
756.00	181.27
757.00	181.30
758.00	181.59
759.00	179.44
760.00	179.30
761.00	178.77
762.00	177.49
763.00	178.95
764.00	177.54
765.00	178.54
766.00	177.91
767.00	177.40
768.00	176.85
769.00	176.10
770.00	176.71
771.00	176.28
772.00	175.55
773.00	176.29
774.00	176.39
775.00	177.16
776.00	175.37
777.00	175.52
778.00	176.43
779.00	175.07
780.00	175.48
781.00	176.07
782.00	175.63
783.00	177.86
784.00	175.19
785.00	176.39
786.00	175.84
787.00	176.49
788.00	174.66
789.00	175.37
790.00	176.01
791.00	174.02
792.00	174.31
793.00	175.05
794.00	174.09
795.00	173.61
796.00	174.91
797.00	172.96
798.00	174.16
799.00	174.10
800.00	173.41
801.00	174.14
802.00	173.32
803.00	173.77
804.00	174.52
805.00	173.25
806.00	173.08
807.00	173.58
808.00	172.74
809.00	172.91
810.00	174.02
811.00	173.28
812.00	173.24
813.00	174.16
814.00	173.39
815.00	174.20
816.00	173.16
817.00	173.96
818.00	172.89
819.00	172.84
820.00	172.79
821.00	172.54
822.00	173.65
823.00	173.05
824.00	172.24
825.00	174.02
826.00	173.18
827.00	172.95
828.00	173.54
829.00	172.54
830.00	173.97
831.00	173.30
832.00	173.44
833.00	172.61
834.00	171.86
835.00	173.48
836.00	172.87
837.00	172.00
838.00	173.20
839.00	172.46
840.00	172.49
841.00	172.92
842.00	173.69
843.00	171.88
844.00	173.11
845.00	173.40
846.00	173.18
847.00	172.61
848.00	172.60
849.00	172.79
850.00	180.60
851.00	172.21
852.00	172.13
853.00	173.47
854.00	173.63
855.00	174.76
856.00	173.22
857.00	173.89
858.00	174.09
859.00	172.77
860.00	172.92
861.00	173.02
862.00	172.84
863.00	172.80
864.00	172.74
865.00	172.62
866.00	172.28
867.00	172.62
868.00	174.39
869.00	173.03
870.00	172.98
871.00	172.66
872.00	173.93
873.00	173.77
874.00	172.99
875.00	172.18
876.00	172.12
877.00	172.28
878.00	173.14
879.00	171.67
880.00	173.31
881.00	173.32
882.00	172.10
883.00	172.67
884.00	173.42
885.00	172.24
886.00	171.90
887.00	173.04
888.00	172.63
889.00	171.67
890.00	173.15
891.00	173.08
892.00	174.56
893.00	172.63
894.00	172.44
895.00	173.08
896.00	172.99
897.00	173.01
898.00	172.11
899.00	173.40
900.00	172.30
901.00	173.68
902.00	171.88
903.00	172.90
904.00	171.70
905.00	175.19
906.00	173.57
907.00	172.91
908.00	172.40
909.00	172.29
910.00	174.10
911.00	173.24
912.00	174.17
913.00	172.17
914.00	172.57
915.00	173.97
916.00	172.63
917.00	172.16
918.00	172.95
919.00	177.63
920.00	172.76
921.00	173.17
922.00	171.98
923.00	172.10
924.00	172.84
925.00	175.98
926.00	174.38
927.00	171.88
928.00	173.94
929.00	171.46
930.00	172.55
931.00	173.71
932.00	172.93
933.00	175.05
934.00	172.29
935.00	172.41
936.00	172.45
937.00	173.45
938.00	174.09
939.00	172.86
940.00	172.59
941.00	173.13
942.00	174.51
943.00	172.97
944.00	172.92
945.00	172.60
946.00	173.58
947.00	172.33
948.00	172.18
949.00	171.69
950.00	172.96
951.00	172.78
952.00	173.00
953.00	172.47
954.00	172.52
955.00	172.64
956.00	173.72
957.00	172.94
958.00	172.12
959.00	173.00
960.00	174.32
961.00	173.36
962.00	173.79
963.00	172.51
964.00	172.74
965.00	173.04
966.00	173.34
967.00	172.69
968.00	174.33
969.00	174.72
970.00	172.27
971.00	171.89
972.00	174.26
973.00	172.84
974.00	173.08
975.00	172.19
976.00	173.39
977.00	172.76
978.00	172.71
979.00	173.33
980.00	173.04
981.00	172.64
982.00	173.29
983.00	171.76
984.00	169.32
985.00	172.54
986.00	172.57
987.00	172.91
988.00	173.67
989.00	172.72
990.00	172.65
991.00	172.76
992.00	172.70
993.00	173.03
994.00	172.01
995.00	173.07
996.00	174.07
997.00	174.99
998.00	173.19
999.00	173.52
1000.00	172.18
>>>>>End Processed Spectral Data<<<<<
