SpectraSuite Data File
++++++++++++++++++++++++++++++++++++
Date: Thu Jun 25 12:04:56 PDT 2026
User: Stephen Warren
Dark Spectrum Present: No
Reference Spectrum Present: No
Number of Sampled Component Spectra: 1
Spectrometers: USB2G24357
Integration Time (usec): 48000 (USB2G24357)
Spectra Averaged: 200 (USB2G24357)
Boxcar Smoothing: 0 (USB2G24357)
Correct for Electrical Dark: No (USB2G24357)
Strobe/Lamp Enabled: No (USB2G24357)
Correct for Detector Non-linearity: No (USB2G24357)
Correct for Stray Light: No (USB2G24357)
Number of Pixels in Processed Spectrum: 651
>>>>>Begin Processed Spectral Data<<<<<
350.00	166.64
351.00	167.03
352.00	167.87
353.00	168.04
354.00	168.05
355.00	168.36
356.00	167.28
357.00	167.48
358.00	169.21
359.00	168.08
360.00	167.68
361.00	168.94
362.00	168.04
363.00	168.08
364.00	168.76
365.00	168.00
366.00	168.69
367.00	169.11
368.00	168.88
369.00	169.33
370.00	168.83
371.00	169.22
372.00	169.32
373.00	170.41
374.00	168.61
375.00	168.61
376.00	167.89
377.00	169.70
378.00	169.40
379.00	169.51
380.00	168.44
381.00	169.76
382.00	168.96
383.00	168.44
384.00	168.97
385.00	168.90
386.00	169.22
387.00	169.33
388.00	168.93
389.00	169.62
390.00	168.95
391.00	168.71
392.00	170.02
393.00	170.94
394.00	169.85
395.00	172.73
396.00	169.95
397.00	169.97
398.00	170.43
399.00	170.68
400.00	170.57
401.00	170.70
402.00	170.98
403.00	171.30
404.00	170.75
405.00	171.84
406.00	171.23
407.00	172.45
408.00	172.17
409.00	173.71
410.00	172.17
411.00	172.51
412.00	173.50
413.00	174.55
414.00	175.44
415.00	175.39
416.00	176.38
417.00	175.92
418.00	176.21
419.00	178.54
420.00	178.03
421.00	178.39
422.00	177.70
423.00	178.12
424.00	178.36
425.00	179.71
426.00	179.43
427.00	180.91
428.00	180.43
429.00	180.68
430.00	181.29
431.00	181.82
432.00	183.03
433.00	184.83
434.00	186.18
435.00	186.56
436.00	187.20
437.00	188.91
438.00	189.90
439.00	190.58
440.00	192.61
441.00	192.72
442.00	193.67
443.00	195.76
444.00	195.69
445.00	195.55
446.00	196.17
447.00	197.07
448.00	197.58
449.00	199.26
450.00	199.28
451.00	198.80
452.00	198.73
453.00	199.80
454.00	201.04
455.00	202.22
456.00	203.61
457.00	205.57
458.00	206.32
459.00	208.04
460.00	208.95
461.00	211.00
462.00	213.78
463.00	216.15
464.00	217.88
465.00	219.47
466.00	220.57
467.00	224.52
468.00	225.40
469.00	226.30
470.00	228.10
471.00	228.67
472.00	229.28
473.00	230.56
474.00	232.06
475.00	233.97
476.00	235.40
477.00	237.38
478.00	238.61
479.00	241.52
480.00	243.23
481.00	244.27
482.00	247.12
483.00	248.84
484.00	251.92
485.00	256.29
486.00	258.58
487.00	261.92
488.00	263.69
489.00	268.82
490.00	272.33
491.00	275.85
492.00	280.76
493.00	284.38
494.00	287.37
495.00	289.81
496.00	294.41
497.00	298.17
498.00	301.06
499.00	300.39
500.00	302.66
501.00	302.65
502.00	304.32
503.00	305.10
504.00	304.98
505.00	304.54
506.00	305.41
507.00	304.89
508.00	306.75
509.00	304.33
510.00	305.43
511.00	304.00
512.00	304.48
513.00	304.38
514.00	306.80
515.00	306.72
516.00	307.33
517.00	308.67
518.00	308.71
519.00	312.55
520.00	311.35
521.00	313.46
522.00	314.48
523.00	316.77
524.00	315.94
525.00	318.28
526.00	321.00
527.00	323.13
528.00	325.57
529.00	329.51
530.00	330.92
531.00	333.59
532.00	337.78
533.00	342.01
534.00	344.64
535.00	348.97
536.00	351.82
537.00	352.72
538.00	353.87
539.00	357.62
540.00	357.94
541.00	358.35
542.00	358.20
543.00	358.92
544.00	358.46
545.00	358.92
546.00	358.40
547.00	362.38
548.00	359.08
549.00	358.25
550.00	357.83
551.00	358.21
552.00	356.05
553.00	357.31
554.00	358.07
555.00	359.77
556.00	360.42
557.00	358.70
558.00	359.44
559.00	361.13
560.00	360.72
561.00	359.54
562.00	363.12
563.00	364.67
564.00	366.29
565.00	368.50
566.00	369.39
567.00	370.69
568.00	372.63
569.00	374.43
570.00	378.36
571.00	380.83
572.00	384.52
573.00	386.23
574.00	390.31
575.00	393.29
576.00	395.13
577.00	398.34
578.00	405.63
579.00	405.52
580.00	410.44
581.00	411.56
582.00	414.17
583.00	417.37
584.00	420.31
585.00	420.40
586.00	421.88
587.00	422.16
588.00	422.12
589.00	423.55
590.00	423.40
591.00	422.27
592.00	422.24
593.00	419.37
594.00	420.37
595.00	418.46
596.00	416.18
597.00	417.58
598.00	415.84
599.00	413.66
600.00	413.38
601.00	413.19
602.00	412.60
603.00	413.25
604.00	412.83
605.00	412.88
606.00	412.10
607.00	410.15
608.00	410.86
609.00	411.38
610.00	410.52
611.00	412.12
612.00	414.05
613.00	411.88
614.00	413.99
615.00	412.27
616.00	417.15
617.00	414.99
618.00	417.97
619.00	417.64
620.00	418.10
621.00	421.16
622.00	421.50
623.00	422.42
624.00	424.70
625.00	426.13
626.00	426.90
627.00	430.74
628.00	430.03
629.00	431.87
630.00	431.52
631.00	433.69
632.00	434.83
633.00	433.96
634.00	435.50
635.00	436.24
636.00	435.17
637.00	435.50
638.00	435.31
639.00	434.44
640.00	435.10
641.00	432.64
642.00	431.49
643.00	429.37
644.00	427.17
645.00	426.42
646.00	424.27
647.00	421.65
648.00	418.06
649.00	415.82
650.00	412.13
651.00	410.14
652.00	407.89
653.00	406.71
654.00	403.14
655.00	402.13
656.00	400.38
657.00	396.39
658.00	396.17
659.00	390.79
660.00	389.97
661.00	386.97
662.00	385.10
663.00	383.07
664.00	382.27
665.00	379.38
666.00	378.55
667.00	375.42
668.00	375.82
669.00	373.70
670.00	370.89
671.00	366.43
672.00	362.08
673.00	360.57
674.00	364.24
675.00	361.84
676.00	361.91
677.00	359.96
678.00	356.31
679.00	355.31
680.00	353.05
681.00	352.82
682.00	351.48
683.00	347.33
684.00	347.03
685.00	344.80
686.00	345.12
687.00	341.92
688.00	339.76
689.00	337.35
690.00	336.99
691.00	333.78
692.00	332.49
693.00	332.38
694.00	328.08
695.00	326.24
696.00	324.46
697.00	322.18
698.00	318.44
699.00	315.49
700.00	312.57
701.00	308.89
702.00	304.40
703.00	306.33
704.00	297.46
705.00	293.29
706.00	290.60
707.00	284.34
708.00	280.47
709.00	276.22
710.00	270.76
711.00	266.03
712.00	260.43
713.00	256.80
714.00	252.00
715.00	247.77
716.00	243.87
717.00	239.25
718.00	234.71
719.00	230.00
720.00	225.82
721.00	222.06
722.00	219.44
723.00	216.11
724.00	212.76
725.00	208.16
726.00	206.16
727.00	202.35
728.00	199.37
729.00	196.01
730.00	194.60
731.00	192.13
732.00	191.77
733.00	187.87
734.00	185.94
735.00	183.92
736.00	182.54
737.00	180.34
738.00	179.96
739.00	178.28
740.00	177.68
741.00	176.33
742.00	175.93
743.00	175.17
744.00	175.69
745.00	174.92
746.00	174.35
747.00	173.07
748.00	173.17
749.00	172.36
750.00	172.84
751.00	172.97
752.00	172.26
753.00	171.28
754.00	172.63
755.00	170.81
756.00	170.98
757.00	171.14
758.00	172.22
759.00	170.03
760.00	170.10
761.00	170.15
762.00	168.92
763.00	170.35
764.00	169.24
765.00	171.08
766.00	170.15
767.00	170.20
768.00	169.53
769.00	169.42
770.00	169.73
771.00	169.54
772.00	168.34
773.00	169.69
774.00	169.36
775.00	170.03
776.00	168.39
777.00	169.13
778.00	169.65
779.00	168.29
780.00	168.97
781.00	168.89
782.00	169.61
783.00	171.47
784.00	168.76
785.00	170.01
786.00	169.43
787.00	170.25
788.00	168.23
789.00	169.25
790.00	170.51
791.00	168.52
792.00	169.29
793.00	169.32
794.00	168.45
795.00	168.20
796.00	169.83
797.00	167.85
798.00	169.06
799.00	168.23
800.00	168.65
801.00	169.38
802.00	167.62
803.00	168.93
804.00	169.08
805.00	168.93
806.00	168.62
807.00	168.74
808.00	167.67
809.00	168.17
810.00	169.28
811.00	168.81
812.00	168.44
813.00	169.67
814.00	168.86
815.00	170.19
816.00	168.85
817.00	169.71
818.00	168.37
819.00	168.59
820.00	168.55
821.00	168.20
822.00	169.48
823.00	168.14
824.00	167.64
825.00	169.32
826.00	168.91
827.00	168.89
828.00	169.56
829.00	168.08
830.00	169.94
831.00	168.48
832.00	168.79
833.00	168.03
834.00	167.87
835.00	168.81
836.00	168.47
837.00	167.64
838.00	168.60
839.00	168.37
840.00	168.14
841.00	168.78
842.00	168.76
843.00	167.34
844.00	168.63
845.00	169.05
846.00	168.02
847.00	167.89
848.00	168.20
849.00	168.20
850.00	176.42
851.00	167.90
852.00	167.82
853.00	169.18
854.00	169.24
855.00	170.28
856.00	169.34
857.00	169.49
858.00	169.70
859.00	167.96
860.00	168.54
861.00	168.77
862.00	168.22
863.00	168.19
864.00	168.58
865.00	168.09
866.00	167.89
867.00	168.90
868.00	170.04
869.00	168.75
870.00	168.99
871.00	168.38
872.00	169.87
873.00	169.45
874.00	168.33
875.00	168.10
876.00	168.27
877.00	168.20
878.00	168.54
879.00	167.54
880.00	169.36
881.00	169.22
882.00	167.37
883.00	168.02
884.00	169.23
885.00	168.10
886.00	167.43
887.00	168.48
888.00	167.99
889.00	167.64
890.00	169.01
891.00	168.58
892.00	170.47
893.00	168.30
894.00	168.34
895.00	168.90
896.00	169.43
897.00	169.15
898.00	168.10
899.00	169.10
900.00	168.07
901.00	169.67
902.00	167.32
903.00	168.57
904.00	167.90
905.00	170.69
906.00	169.41
907.00	168.78
908.00	168.15
909.00	168.22
910.00	170.04
911.00	169.42
912.00	170.44
913.00	167.65
914.00	168.39
915.00	169.57
916.00	168.68
917.00	167.77
918.00	168.73
919.00	173.94
920.00	168.69
921.00	168.34
922.00	168.09
923.00	167.63
924.00	168.91
925.00	171.78
926.00	170.10
927.00	167.99
928.00	169.93
929.00	167.65
930.00	168.71
931.00	170.20
932.00	168.56
933.00	171.02
934.00	168.61
935.00	168.04
936.00	168.29
937.00	169.66
938.00	169.88
939.00	168.82
940.00	168.74
941.00	169.42
942.00	170.48
943.00	169.04
944.00	168.90
945.00	168.74
946.00	169.46
947.00	168.29
948.00	168.22
949.00	168.02
950.00	168.88
951.00	168.73
952.00	169.25
953.00	168.67
954.00	168.61
955.00	168.25
956.00	169.98
957.00	168.87
958.00	168.38
959.00	169.03
960.00	170.14
961.00	169.17
962.00	170.20
963.00	168.19
964.00	168.78
965.00	168.99
966.00	169.17
967.00	168.98
968.00	170.88
969.00	171.02
970.00	168.31
971.00	168.04
972.00	170.83
973.00	169.12
974.00	169.55
975.00	168.40
976.00	168.87
977.00	168.68
978.00	168.57
979.00	169.24
980.00	169.05
981.00	168.13
982.00	169.35
983.00	167.50
984.00	165.69
985.00	168.52
986.00	168.52
987.00	169.18
988.00	170.03
989.00	168.71
990.00	168.34
991.00	169.06
992.00	168.94
993.00	169.26
994.00	168.48
995.00	169.11
996.00	170.09
997.00	171.09
998.00	168.91
999.00	169.86
1000.00	168.51
>>>>>End Processed Spectral Data<<<<<
