SpectraSuite Data File
++++++++++++++++++++++++++++++++++++
Date: Tue Aug 04 12:22:39 PDT 2026
User: Stephen Warren
Dark Spectrum Present: No
Reference Spectrum Present: No
Number of Sampled Component Spectra: 1
Spectrometers: USB2G24357
Integration Time (usec): 48000 (USB2G24357)
Spectra Averaged: 200 (USB2G24357)
Boxcar Smoothing: 0 (USB2G24357)
Correct for Electrical Dark: No (USB2G24357)
Strobe/Lamp Enabled: No (USB2G24357)
Correct for Detector Non-linearity: No (USB2G24357)
Correct for Stray Light: No (USB2G24357)
Number of Pixels in Processed Spectrum: 651
>>>>>Begin Processed Spectral Data<<<<<
350.00	158.72
351.00	159.19
352.00	160.38
353.00	160.18
354.00	159.96
355.00	160.18
356.00	159.71
357.00	159.95
358.00	160.94
359.00	159.99
360.00	160.00
361.00	160.94
362.00	160.50
363.00	159.73
364.00	160.50
365.00	160.24
366.00	160.60
367.00	161.59
368.00	161.21
369.00	161.24
370.00	161.03
371.00	161.44
372.00	160.92
373.00	162.09
374.00	160.63
375.00	160.34
376.00	160.46
377.00	161.46
378.00	161.49
379.00	161.31
380.00	160.64
381.00	161.79
382.00	161.00
383.00	160.50
384.00	161.11
385.00	160.86
386.00	161.46
387.00	160.96
388.00	160.89
389.00	161.57
390.00	161.11
391.00	161.20
392.00	161.94
393.00	162.58
394.00	161.63
395.00	164.29
396.00	161.70
397.00	161.11
398.00	161.75
399.00	161.45
400.00	161.21
401.00	161.06
402.00	161.54
403.00	161.71
404.00	160.94
405.00	161.60
406.00	161.31
407.00	161.67
408.00	161.41
409.00	162.26
410.00	161.48
411.00	160.58
412.00	162.31
413.00	162.31
414.00	162.61
415.00	162.02
416.00	162.55
417.00	161.54
418.00	161.49
419.00	163.76
420.00	162.56
421.00	163.06
422.00	161.71
423.00	161.46
424.00	161.86
425.00	162.38
426.00	161.57
427.00	163.04
428.00	161.96
429.00	161.97
430.00	162.07
431.00	161.53
432.00	162.03
433.00	162.05
434.00	163.20
435.00	162.76
436.00	162.30
437.00	162.74
438.00	163.28
439.00	162.69
440.00	162.95
441.00	162.16
442.00	162.47
443.00	163.75
444.00	162.84
445.00	162.99
446.00	162.45
447.00	162.07
448.00	162.61
449.00	164.45
450.00	163.13
451.00	162.75
452.00	162.52
453.00	162.54
454.00	162.88
455.00	163.49
456.00	163.36
457.00	163.84
458.00	163.73
459.00	163.79
460.00	163.27
461.00	163.62
462.00	164.43
463.00	164.25
464.00	164.77
465.00	164.39
466.00	164.47
467.00	165.82
468.00	165.34
469.00	165.26
470.00	165.21
471.00	164.77
472.00	164.84
473.00	165.11
474.00	165.21
475.00	165.93
476.00	165.81
477.00	165.92
478.00	165.92
479.00	167.04
480.00	166.36
481.00	165.84
482.00	166.80
483.00	166.14
484.00	167.18
485.00	168.20
486.00	167.64
487.00	167.63
488.00	166.72
489.00	167.87
490.00	168.61
491.00	168.23
492.00	169.70
493.00	169.57
494.00	170.16
495.00	169.46
496.00	170.46
497.00	171.28
498.00	172.21
499.00	170.93
500.00	171.53
501.00	170.31
502.00	170.65
503.00	171.74
504.00	172.23
505.00	171.64
506.00	172.02
507.00	172.45
508.00	174.24
509.00	171.81
510.00	172.78
511.00	171.06
512.00	171.57
513.00	172.49
514.00	172.32
515.00	172.06
516.00	172.12
517.00	172.43
518.00	171.27
519.00	173.78
520.00	172.99
521.00	172.28
522.00	172.69
523.00	173.43
524.00	173.21
525.00	172.93
526.00	173.40
527.00	173.95
528.00	174.57
529.00	175.27
530.00	173.84
531.00	174.71
532.00	175.11
533.00	175.66
534.00	175.94
535.00	177.34
536.00	176.08
537.00	176.62
538.00	175.97
539.00	177.97
540.00	177.69
541.00	176.87
542.00	176.96
543.00	177.49
544.00	176.28
545.00	177.57
546.00	177.71
547.00	181.06
548.00	178.69
549.00	177.49
550.00	178.34
551.00	178.23
552.00	177.05
553.00	177.66
554.00	177.70
555.00	178.14
556.00	178.32
557.00	177.72
558.00	177.60
559.00	179.09
560.00	180.04
561.00	177.72
562.00	178.93
563.00	178.97
564.00	179.17
565.00	180.32
566.00	179.32
567.00	179.75
568.00	179.77
569.00	180.23
570.00	181.69
571.00	180.50
572.00	181.15
573.00	181.48
574.00	181.72
575.00	182.03
576.00	181.52
577.00	181.54
578.00	184.18
579.00	183.39
580.00	183.93
581.00	183.71
582.00	184.15
583.00	184.53
584.00	185.55
585.00	185.25
586.00	185.77
587.00	185.30
588.00	184.78
589.00	185.54
590.00	185.84
591.00	185.72
592.00	186.35
593.00	184.56
594.00	185.70
595.00	184.83
596.00	184.34
597.00	185.56
598.00	185.89
599.00	185.91
600.00	185.65
601.00	185.00
602.00	185.47
603.00	185.92
604.00	185.81
605.00	186.58
606.00	185.82
607.00	184.88
608.00	185.68
609.00	185.31
610.00	185.27
611.00	185.81
612.00	186.03
613.00	184.96
614.00	185.65
615.00	185.11
616.00	186.58
617.00	185.05
618.00	187.14
619.00	186.32
620.00	185.97
621.00	187.05
622.00	186.58
623.00	186.32
624.00	186.98
625.00	188.15
626.00	187.92
627.00	189.63
628.00	187.87
629.00	187.44
630.00	187.35
631.00	188.34
632.00	188.38
633.00	187.58
634.00	188.49
635.00	188.63
636.00	188.11
637.00	188.97
638.00	188.90
639.00	188.44
640.00	188.55
641.00	188.64
642.00	187.58
643.00	188.18
644.00	187.81
645.00	188.34
646.00	188.10
647.00	188.16
648.00	186.85
649.00	187.10
650.00	186.24
651.00	185.69
652.00	185.43
653.00	185.84
654.00	186.27
655.00	185.93
656.00	185.80
657.00	185.20
658.00	187.10
659.00	184.01
660.00	185.31
661.00	184.23
662.00	183.89
663.00	184.01
664.00	184.12
665.00	184.24
666.00	183.84
667.00	183.08
668.00	185.17
669.00	182.64
670.00	182.97
671.00	182.52
672.00	182.45
673.00	181.66
674.00	183.04
675.00	183.14
676.00	183.04
677.00	182.05
678.00	181.16
679.00	181.17
680.00	181.04
681.00	182.49
682.00	182.25
683.00	180.37
684.00	180.71
685.00	180.65
686.00	181.41
687.00	180.57
688.00	179.77
689.00	179.23
690.00	179.47
691.00	178.79
692.00	179.77
693.00	180.19
694.00	178.66
695.00	178.86
696.00	178.70
697.00	178.73
698.00	178.35
699.00	177.99
700.00	178.20
701.00	177.92
702.00	176.50
703.00	181.32
704.00	176.45
705.00	176.29
706.00	177.03
707.00	174.75
708.00	174.85
709.00	174.60
710.00	173.78
711.00	173.24
712.00	172.15
713.00	172.11
714.00	170.74
715.00	170.75
716.00	170.97
717.00	170.11
718.00	169.87
719.00	168.40
720.00	167.91
721.00	167.81
722.00	168.13
723.00	167.98
724.00	167.12
725.00	166.30
726.00	166.11
727.00	165.63
728.00	165.11
729.00	163.70
730.00	165.04
731.00	163.65
732.00	165.39
733.00	163.40
734.00	163.16
735.00	162.81
736.00	162.40
737.00	161.87
738.00	162.71
739.00	161.33
740.00	162.61
741.00	160.98
742.00	161.26
743.00	161.26
744.00	162.27
745.00	161.62
746.00	161.60
747.00	160.74
748.00	161.44
749.00	160.65
750.00	161.36
751.00	161.34
752.00	161.39
753.00	160.83
754.00	162.45
755.00	160.07
756.00	160.86
757.00	161.23
758.00	162.17
759.00	160.12
760.00	160.35
761.00	160.56
762.00	159.97
763.00	161.51
764.00	160.46
765.00	162.26
766.00	161.06
767.00	161.12
768.00	160.57
769.00	160.22
770.00	160.70
771.00	160.82
772.00	159.71
773.00	160.77
774.00	161.26
775.00	161.32
776.00	159.69
777.00	160.35
778.00	160.71
779.00	159.89
780.00	160.09
781.00	160.71
782.00	160.46
783.00	160.90
784.00	159.79
785.00	161.67
786.00	161.22
787.00	161.37
788.00	159.98
789.00	161.01
790.00	161.71
791.00	159.75
792.00	160.47
793.00	160.82
794.00	160.39
795.00	159.62
796.00	161.29
797.00	159.44
798.00	161.21
799.00	160.66
800.00	160.30
801.00	161.27
802.00	160.08
803.00	160.47
804.00	161.20
805.00	160.84
806.00	160.57
807.00	160.72
808.00	159.49
809.00	160.52
810.00	161.38
811.00	160.71
812.00	160.71
813.00	162.04
814.00	160.94
815.00	162.03
816.00	160.60
817.00	161.64
818.00	160.62
819.00	160.60
820.00	160.22
821.00	159.70
822.00	161.47
823.00	160.28
824.00	160.07
825.00	161.43
826.00	160.92
827.00	160.90
828.00	161.41
829.00	160.09
830.00	161.93
831.00	161.35
832.00	160.78
833.00	160.23
834.00	159.63
835.00	161.14
836.00	160.83
837.00	160.13
838.00	161.27
839.00	160.26
840.00	160.17
841.00	160.89
842.00	161.42
843.00	159.37
844.00	161.19
845.00	161.27
846.00	160.64
847.00	160.39
848.00	160.51
849.00	160.23
850.00	169.06
851.00	160.21
852.00	159.79
853.00	160.91
854.00	161.72
855.00	162.54
856.00	161.23
857.00	161.55
858.00	162.11
859.00	160.38
860.00	161.31
861.00	160.69
862.00	160.38
863.00	160.60
864.00	160.65
865.00	160.40
866.00	159.83
867.00	161.32
868.00	162.04
869.00	161.15
870.00	161.16
871.00	160.81
872.00	162.13
873.00	161.78
874.00	161.67
875.00	160.10
876.00	160.31
877.00	160.53
878.00	161.05
879.00	159.52
880.00	161.27
881.00	160.98
882.00	159.62
883.00	160.29
884.00	161.21
885.00	160.43
886.00	159.86
887.00	160.75
888.00	160.56
889.00	159.78
890.00	161.23
891.00	160.86
892.00	162.91
893.00	160.54
894.00	160.83
895.00	161.38
896.00	161.29
897.00	161.13
898.00	160.28
899.00	161.50
900.00	160.44
901.00	162.47
902.00	159.61
903.00	160.70
904.00	160.00
905.00	163.01
906.00	162.03
907.00	161.11
908.00	160.49
909.00	160.38
910.00	162.65
911.00	161.83
912.00	163.18
913.00	160.16
914.00	160.68
915.00	161.76
916.00	161.20
917.00	160.39
918.00	161.29
919.00	166.18
920.00	161.29
921.00	160.83
922.00	159.96
923.00	159.79
924.00	160.95
925.00	164.59
926.00	162.35
927.00	159.91
928.00	162.35
929.00	159.92
930.00	160.60
931.00	162.12
932.00	160.98
933.00	163.38
934.00	160.53
935.00	160.35
936.00	160.22
937.00	162.10
938.00	162.20
939.00	160.87
940.00	161.21
941.00	161.72
942.00	163.02
943.00	161.47
944.00	161.24
945.00	161.16
946.00	161.54
947.00	160.41
948.00	160.54
949.00	160.37
950.00	161.36
951.00	161.16
952.00	161.24
953.00	160.63
954.00	160.86
955.00	160.72
956.00	161.84
957.00	161.18
958.00	160.47
959.00	161.27
960.00	162.77
961.00	161.84
962.00	162.49
963.00	160.86
964.00	161.06
965.00	161.45
966.00	161.44
967.00	161.47
968.00	163.09
969.00	163.58
970.00	161.07
971.00	160.33
972.00	163.15
973.00	161.54
974.00	162.03
975.00	160.35
976.00	161.82
977.00	161.08
978.00	160.75
979.00	161.49
980.00	161.26
981.00	160.89
982.00	161.62
983.00	159.85
984.00	159.18
985.00	161.58
986.00	160.73
987.00	161.57
988.00	162.35
989.00	161.20
990.00	160.89
991.00	161.19
992.00	161.21
993.00	161.55
994.00	160.23
995.00	161.45
996.00	162.95
997.00	162.34
998.00	161.50
999.00	162.23
1000.00	160.70
>>>>>End Processed Spectral Data<<<<<
