SpectraSuite Data File
++++++++++++++++++++++++++++++++++++
Date: Tue Jul 07 14:20:24 PDT 2026
User: Stephen Warren
Dark Spectrum Present: No
Reference Spectrum Present: No
Number of Sampled Component Spectra: 1
Spectrometers: USB2G24357
Integration Time (usec): 48000 (USB2G24357)
Spectra Averaged: 200 (USB2G24357)
Boxcar Smoothing: 0 (USB2G24357)
Correct for Electrical Dark: No (USB2G24357)
Strobe/Lamp Enabled: No (USB2G24357)
Correct for Detector Non-linearity: No (USB2G24357)
Correct for Stray Light: No (USB2G24357)
Number of Pixels in Processed Spectrum: 651
>>>>>Begin Processed Spectral Data<<<<<
350.00	163.82
351.00	164.23
352.00	164.77
353.00	164.95
354.00	164.78
355.00	164.91
356.00	164.52
357.00	164.25
358.00	166.20
359.00	164.90
360.00	164.51
361.00	165.70
362.00	165.14
363.00	164.82
364.00	165.18
365.00	164.62
366.00	165.34
367.00	166.33
368.00	165.89
369.00	166.27
370.00	165.76
371.00	166.00
372.00	165.96
373.00	167.09
374.00	165.65
375.00	165.46
376.00	165.11
377.00	166.40
378.00	166.43
379.00	166.51
380.00	165.32
381.00	166.61
382.00	166.11
383.00	165.62
384.00	165.65
385.00	166.06
386.00	165.91
387.00	166.05
388.00	165.49
389.00	166.42
390.00	165.87
391.00	166.24
392.00	167.03
393.00	167.83
394.00	167.08
395.00	169.91
396.00	167.10
397.00	167.39
398.00	168.02
399.00	168.61
400.00	168.07
401.00	168.24
402.00	168.80
403.00	169.66
404.00	168.78
405.00	169.93
406.00	169.87
407.00	170.32
408.00	170.40
409.00	171.61
410.00	170.86
411.00	170.95
412.00	172.86
413.00	173.48
414.00	174.07
415.00	174.86
416.00	175.99
417.00	175.76
418.00	176.29
419.00	179.03
420.00	178.75
421.00	178.85
422.00	178.40
423.00	179.22
424.00	179.90
425.00	180.84
426.00	180.82
427.00	182.12
428.00	181.76
429.00	182.81
430.00	183.54
431.00	184.21
432.00	186.02
433.00	186.89
434.00	189.16
435.00	190.24
436.00	190.95
437.00	193.22
438.00	195.07
439.00	196.19
440.00	198.24
441.00	199.39
442.00	200.50
443.00	202.91
444.00	202.65
445.00	202.74
446.00	203.34
447.00	204.43
448.00	205.71
449.00	206.65
450.00	206.90
451.00	206.29
452.00	206.55
453.00	208.29
454.00	209.79
455.00	211.29
456.00	212.75
457.00	215.51
458.00	216.49
459.00	218.47
460.00	220.40
461.00	222.20
462.00	226.18
463.00	228.71
464.00	231.15
465.00	233.30
466.00	236.31
467.00	240.04
468.00	241.61
469.00	242.76
470.00	245.48
471.00	245.95
472.00	246.28
473.00	248.36
474.00	250.63
475.00	252.64
476.00	254.24
477.00	255.94
478.00	258.88
479.00	262.56
480.00	264.48
481.00	265.63
482.00	269.95
483.00	273.01
484.00	277.38
485.00	282.13
486.00	285.63
487.00	289.62
488.00	292.75
489.00	298.48
490.00	302.99
491.00	307.63
492.00	314.32
493.00	318.37
494.00	322.99
495.00	326.01
496.00	331.09
497.00	336.09
498.00	339.41
499.00	340.03
500.00	342.52
501.00	343.60
502.00	345.03
503.00	345.77
504.00	346.04
505.00	345.40
506.00	344.44
507.00	345.03
508.00	346.32
509.00	342.93
510.00	343.98
511.00	343.59
512.00	343.21
513.00	343.58
514.00	345.44
515.00	345.98
516.00	346.71
517.00	347.73
518.00	348.29
519.00	352.26
520.00	352.35
521.00	355.55
522.00	357.06
523.00	359.33
524.00	360.43
525.00	362.76
526.00	364.97
527.00	367.40
528.00	369.85
529.00	373.59
530.00	374.15
531.00	377.00
532.00	382.50
533.00	385.94
534.00	389.96
535.00	394.07
536.00	397.95
537.00	399.95
538.00	401.54
539.00	407.40
540.00	407.38
541.00	407.87
542.00	408.18
543.00	408.32
544.00	407.15
545.00	408.89
546.00	406.41
547.00	410.59
548.00	406.96
549.00	406.02
550.00	405.81
551.00	405.58
552.00	402.60
553.00	404.62
554.00	406.02
555.00	406.94
556.00	408.40
557.00	407.40
558.00	407.58
559.00	409.57
560.00	408.30
561.00	407.89
562.00	411.90
563.00	412.76
564.00	415.05
565.00	417.34
566.00	418.73
567.00	421.45
568.00	423.43
569.00	425.59
570.00	430.62
571.00	434.53
572.00	438.37
573.00	440.67
574.00	445.46
575.00	450.31
576.00	452.94
577.00	455.86
578.00	464.47
579.00	463.50
580.00	470.52
581.00	470.84
582.00	474.09
583.00	476.50
584.00	479.95
585.00	480.12
586.00	481.34
587.00	483.23
588.00	482.02
589.00	484.11
590.00	484.52
591.00	481.61
592.00	482.43
593.00	478.84
594.00	479.43
595.00	476.94
596.00	475.46
597.00	474.68
598.00	472.25
599.00	470.58
600.00	469.79
601.00	469.28
602.00	468.24
603.00	467.79
604.00	468.25
605.00	467.94
606.00	466.14
607.00	464.63
608.00	464.90
609.00	465.89
610.00	464.61
611.00	466.04
612.00	468.77
613.00	465.16
614.00	468.98
615.00	467.15
616.00	471.10
617.00	468.84
618.00	471.96
619.00	471.83
620.00	473.68
621.00	476.50
622.00	475.88
623.00	475.93
624.00	479.57
625.00	482.45
626.00	482.60
627.00	485.95
628.00	485.40
629.00	488.07
630.00	487.82
631.00	489.26
632.00	490.09
633.00	490.70
634.00	489.96
635.00	490.88
636.00	489.67
637.00	491.25
638.00	490.60
639.00	489.04
640.00	489.66
641.00	485.74
642.00	483.68
643.00	482.10
644.00	479.99
645.00	478.35
646.00	475.53
647.00	471.55
648.00	468.47
649.00	465.90
650.00	460.94
651.00	459.10
652.00	455.82
653.00	454.16
654.00	450.24
655.00	447.32
656.00	444.33
657.00	439.81
658.00	439.12
659.00	433.32
660.00	432.78
661.00	428.94
662.00	425.85
663.00	423.00
664.00	421.24
665.00	418.72
666.00	416.93
667.00	412.86
668.00	412.88
669.00	410.87
670.00	406.90
671.00	401.90
672.00	396.69
673.00	394.97
674.00	399.19
675.00	396.26
676.00	396.06
677.00	393.16
678.00	388.29
679.00	388.12
680.00	386.28
681.00	385.33
682.00	383.58
683.00	379.32
684.00	378.55
685.00	375.27
686.00	375.07
687.00	372.55
688.00	370.46
689.00	367.14
690.00	366.40
691.00	362.75
692.00	361.41
693.00	360.57
694.00	356.47
695.00	354.64
696.00	352.90
697.00	350.29
698.00	346.53
699.00	343.74
700.00	340.09
701.00	336.45
702.00	331.44
703.00	332.02
704.00	323.55
705.00	319.41
706.00	317.12
707.00	310.48
708.00	305.54
709.00	300.90
710.00	295.69
711.00	289.27
712.00	283.27
713.00	278.25
714.00	272.30
715.00	266.76
716.00	262.46
717.00	256.45
718.00	251.72
719.00	245.24
720.00	239.96
721.00	235.69
722.00	231.89
723.00	227.71
724.00	222.46
725.00	218.14
726.00	214.72
727.00	210.36
728.00	206.99
729.00	202.77
730.00	201.08
731.00	197.04
732.00	196.12
733.00	191.63
734.00	189.75
735.00	186.07
736.00	183.99
737.00	181.99
738.00	181.15
739.00	178.41
740.00	178.15
741.00	175.97
742.00	175.40
743.00	174.64
744.00	174.50
745.00	173.88
746.00	173.36
747.00	172.06
748.00	171.82
749.00	170.63
750.00	170.77
751.00	170.78
752.00	170.23
753.00	169.62
754.00	170.59
755.00	168.44
756.00	168.80
757.00	168.98
758.00	169.58
759.00	168.12
760.00	167.83
761.00	167.42
762.00	166.97
763.00	168.09
764.00	166.82
765.00	168.39
766.00	167.45
767.00	167.27
768.00	167.20
769.00	166.73
770.00	166.82
771.00	166.60
772.00	165.81
773.00	167.05
774.00	166.79
775.00	167.16
776.00	165.37
777.00	165.66
778.00	166.72
779.00	165.23
780.00	165.86
781.00	166.21
782.00	166.23
783.00	168.80
784.00	165.58
785.00	167.07
786.00	167.43
787.00	167.27
788.00	165.61
789.00	166.38
790.00	167.08
791.00	165.69
792.00	166.19
793.00	166.53
794.00	165.73
795.00	165.64
796.00	167.01
797.00	164.86
798.00	166.32
799.00	165.68
800.00	165.94
801.00	166.34
802.00	165.22
803.00	165.65
804.00	166.32
805.00	165.58
806.00	165.67
807.00	165.49
808.00	164.67
809.00	165.18
810.00	166.25
811.00	165.80
812.00	165.57
813.00	166.90
814.00	165.58
815.00	166.93
816.00	165.59
817.00	166.37
818.00	165.06
819.00	165.53
820.00	165.19
821.00	164.89
822.00	166.34
823.00	165.42
824.00	164.89
825.00	166.14
826.00	165.80
827.00	165.60
828.00	166.08
829.00	164.92
830.00	166.81
831.00	165.68
832.00	165.80
833.00	165.27
834.00	164.56
835.00	166.09
836.00	165.23
837.00	164.98
838.00	166.05
839.00	165.02
840.00	165.08
841.00	165.56
842.00	166.39
843.00	164.39
844.00	165.63
845.00	166.06
846.00	165.03
847.00	164.83
848.00	164.84
849.00	165.02
850.00	173.02
851.00	164.79
852.00	164.51
853.00	166.07
854.00	166.18
855.00	167.02
856.00	166.23
857.00	166.02
858.00	166.76
859.00	165.01
860.00	165.76
861.00	165.88
862.00	165.12
863.00	165.40
864.00	165.13
865.00	165.41
866.00	164.74
867.00	166.10
868.00	167.04
869.00	165.79
870.00	165.79
871.00	165.39
872.00	166.88
873.00	166.22
874.00	165.50
875.00	164.44
876.00	165.13
877.00	165.28
878.00	165.55
879.00	164.31
880.00	165.94
881.00	165.64
882.00	164.56
883.00	165.05
884.00	166.10
885.00	164.92
886.00	164.69
887.00	165.18
888.00	165.21
889.00	164.37
890.00	165.71
891.00	165.51
892.00	167.54
893.00	165.20
894.00	165.40
895.00	165.95
896.00	165.88
897.00	165.79
898.00	165.31
899.00	165.69
900.00	164.94
901.00	166.68
902.00	164.33
903.00	165.87
904.00	164.44
905.00	167.98
906.00	166.28
907.00	165.72
908.00	165.29
909.00	165.18
910.00	167.13
911.00	166.19
912.00	167.12
913.00	164.68
914.00	165.60
915.00	166.30
916.00	165.66
917.00	164.79
918.00	165.74
919.00	167.03
920.00	166.04
921.00	165.77
922.00	164.80
923.00	164.68
924.00	165.92
925.00	169.30
926.00	166.97
927.00	164.81
928.00	167.07
929.00	164.70
930.00	165.25
931.00	167.27
932.00	165.64
933.00	168.19
934.00	165.32
935.00	164.98
936.00	165.31
937.00	166.77
938.00	167.14
939.00	165.52
940.00	165.37
941.00	166.31
942.00	167.47
943.00	166.08
944.00	165.98
945.00	165.88
946.00	166.12
947.00	165.25
948.00	165.28
949.00	164.73
950.00	165.45
951.00	165.75
952.00	165.97
953.00	165.39
954.00	165.63
955.00	165.81
956.00	166.83
957.00	166.13
958.00	165.21
959.00	165.98
960.00	167.28
961.00	166.26
962.00	166.95
963.00	165.30
964.00	165.69
965.00	165.73
966.00	166.41
967.00	165.40
968.00	167.44
969.00	167.93
970.00	165.50
971.00	164.62
972.00	167.83
973.00	165.89
974.00	166.16
975.00	165.04
976.00	166.13
977.00	165.90
978.00	165.55
979.00	166.35
980.00	165.71
981.00	165.17
982.00	166.24
983.00	164.50
984.00	162.07
985.00	165.30
986.00	165.52
987.00	166.27
988.00	166.45
989.00	165.78
990.00	165.34
991.00	165.90
992.00	166.26
993.00	166.05
994.00	164.96
995.00	166.46
996.00	166.93
997.00	166.93
998.00	165.93
999.00	166.82
1000.00	165.25
>>>>>End Processed Spectral Data<<<<<
