SpectraSuite Data File
++++++++++++++++++++++++++++++++++++
Date: Tue Jul 07 14:08:15 PDT 2026
User: Stephen Warren
Dark Spectrum Present: No
Reference Spectrum Present: No
Number of Sampled Component Spectra: 1
Spectrometers: USB2G24357
Integration Time (usec): 48000 (USB2G24357)
Spectra Averaged: 200 (USB2G24357)
Boxcar Smoothing: 0 (USB2G24357)
Correct for Electrical Dark: No (USB2G24357)
Strobe/Lamp Enabled: No (USB2G24357)
Correct for Detector Non-linearity: No (USB2G24357)
Correct for Stray Light: No (USB2G24357)
Number of Pixels in Processed Spectrum: 651
>>>>>Begin Processed Spectral Data<<<<<
350.00	165.94
351.00	166.28
352.00	167.21
353.00	167.36
354.00	167.17
355.00	167.52
356.00	166.64
357.00	166.51
358.00	168.65
359.00	167.23
360.00	166.52
361.00	168.01
362.00	167.79
363.00	167.17
364.00	167.72
365.00	167.51
366.00	167.98
367.00	168.51
368.00	168.13
369.00	168.55
370.00	168.25
371.00	168.27
372.00	168.23
373.00	169.36
374.00	167.79
375.00	167.50
376.00	167.08
377.00	168.50
378.00	168.72
379.00	168.19
380.00	167.66
381.00	168.89
382.00	168.47
383.00	167.82
384.00	167.98
385.00	168.17
386.00	168.68
387.00	168.54
388.00	168.20
389.00	168.84
390.00	168.37
391.00	168.49
392.00	169.54
393.00	170.62
394.00	169.81
395.00	173.10
396.00	170.86
397.00	170.85
398.00	171.68
399.00	172.53
400.00	172.91
401.00	172.88
402.00	173.68
403.00	174.74
404.00	174.25
405.00	175.21
406.00	175.56
407.00	176.30
408.00	176.57
409.00	178.01
410.00	178.23
411.00	178.92
412.00	181.00
413.00	182.84
414.00	184.19
415.00	185.35
416.00	187.43
417.00	188.02
418.00	189.68
419.00	193.07
420.00	193.28
421.00	193.58
422.00	193.53
423.00	194.72
424.00	196.60
425.00	198.14
426.00	198.80
427.00	201.40
428.00	200.99
429.00	203.09
430.00	204.48
431.00	206.43
432.00	209.89
433.00	212.42
434.00	215.90
435.00	218.60
436.00	221.79
437.00	225.57
438.00	229.06
439.00	231.74
440.00	237.48
441.00	240.09
442.00	242.13
443.00	245.34
444.00	247.87
445.00	247.78
446.00	248.99
447.00	251.52
448.00	254.11
449.00	254.95
450.00	255.66
451.00	255.85
452.00	256.38
453.00	260.40
454.00	263.16
455.00	266.59
456.00	270.03
457.00	274.68
458.00	277.65
459.00	282.85
460.00	287.10
461.00	292.64
462.00	299.14
463.00	305.70
464.00	309.63
465.00	315.45
466.00	321.41
467.00	327.96
468.00	332.55
469.00	337.30
470.00	342.15
471.00	344.39
472.00	345.61
473.00	349.85
474.00	352.68
475.00	357.70
476.00	362.71
477.00	366.04
478.00	372.16
479.00	378.75
480.00	383.57
481.00	388.76
482.00	395.61
483.00	403.82
484.00	412.62
485.00	422.95
486.00	428.74
487.00	438.97
488.00	447.02
489.00	458.22
490.00	468.45
491.00	478.66
492.00	490.86
493.00	501.00
494.00	509.56
495.00	517.68
496.00	527.66
497.00	536.83
498.00	543.87
499.00	546.76
500.00	551.96
501.00	553.72
502.00	556.81
503.00	558.97
504.00	559.00
505.00	557.43
506.00	557.39
507.00	557.04
508.00	556.72
509.00	554.02
510.00	552.70
511.00	553.23
512.00	553.14
513.00	552.12
514.00	556.23
515.00	557.80
516.00	558.85
517.00	561.53
518.00	564.17
519.00	573.00
520.00	571.68
521.00	579.77
522.00	582.33
523.00	588.06
524.00	589.42
525.00	595.68
526.00	600.03
527.00	603.96
528.00	607.64
529.00	614.98
530.00	620.15
531.00	623.67
532.00	633.03
533.00	642.51
534.00	650.82
535.00	658.77
536.00	668.95
537.00	673.38
538.00	677.57
539.00	687.31
540.00	687.76
541.00	689.38
542.00	690.07
543.00	689.80
544.00	690.75
545.00	690.04
546.00	686.72
547.00	690.20
548.00	686.62
549.00	685.47
550.00	683.23
551.00	682.89
552.00	678.57
553.00	681.20
554.00	683.46
555.00	686.79
556.00	686.57
557.00	686.04
558.00	686.90
559.00	689.19
560.00	686.51
561.00	688.50
562.00	696.54
563.00	698.59
564.00	701.45
565.00	707.47
566.00	711.47
567.00	714.45
568.00	722.82
569.00	725.20
570.00	733.94
571.00	743.59
572.00	753.53
573.00	758.49
574.00	767.65
575.00	778.11
576.00	783.54
577.00	790.85
578.00	805.20
579.00	807.88
580.00	819.83
581.00	822.24
582.00	828.53
583.00	835.21
584.00	840.66
585.00	841.21
586.00	842.07
587.00	847.56
588.00	845.80
589.00	848.60
590.00	848.88
591.00	844.29
592.00	841.16
593.00	838.10
594.00	837.10
595.00	832.65
596.00	829.14
597.00	827.35
598.00	822.26
599.00	817.46
600.00	816.77
601.00	814.67
602.00	813.03
603.00	812.65
604.00	811.09
605.00	808.62
606.00	806.94
607.00	804.15
608.00	804.28
609.00	806.91
610.00	803.08
611.00	805.17
612.00	810.83
613.00	803.88
614.00	810.56
615.00	809.41
616.00	814.39
617.00	812.43
618.00	816.59
619.00	819.10
620.00	820.49
621.00	826.15
622.00	826.13
623.00	828.03
624.00	832.37
625.00	837.34
626.00	838.35
627.00	845.41
628.00	845.75
629.00	850.88
630.00	850.83
631.00	852.65
632.00	855.48
633.00	857.03
634.00	856.57
635.00	857.19
636.00	853.38
637.00	854.67
638.00	855.24
639.00	851.66
640.00	852.41
641.00	845.68
642.00	840.10
643.00	836.42
644.00	831.60
645.00	828.39
646.00	821.60
647.00	812.75
648.00	805.28
649.00	799.05
650.00	790.07
651.00	784.68
652.00	778.40
653.00	773.75
654.00	767.67
655.00	758.60
656.00	753.03
657.00	744.44
658.00	741.15
659.00	730.77
660.00	728.22
661.00	721.00
662.00	714.22
663.00	707.72
664.00	704.15
665.00	697.51
666.00	692.89
667.00	685.64
668.00	685.63
669.00	681.36
670.00	673.91
671.00	661.25
672.00	651.00
673.00	647.41
674.00	655.20
675.00	650.40
676.00	649.30
677.00	643.46
678.00	635.44
679.00	633.62
680.00	629.69
681.00	625.23
682.00	622.02
683.00	614.06
684.00	613.00
685.00	607.94
686.00	604.91
687.00	598.67
688.00	594.71
689.00	589.60
690.00	585.83
691.00	580.97
692.00	577.71
693.00	575.22
694.00	567.77
695.00	563.41
696.00	559.25
697.00	552.50
698.00	545.94
699.00	541.63
700.00	533.04
701.00	525.68
702.00	516.40
703.00	514.81
704.00	501.60
705.00	492.24
706.00	484.77
707.00	473.85
708.00	463.46
709.00	452.67
710.00	441.13
711.00	431.11
712.00	417.85
713.00	406.53
714.00	395.16
715.00	383.17
716.00	372.52
717.00	360.92
718.00	349.41
719.00	337.44
720.00	326.72
721.00	316.23
722.00	306.75
723.00	297.71
724.00	287.63
725.00	278.02
726.00	270.99
727.00	261.93
728.00	253.90
729.00	246.41
730.00	240.40
731.00	234.17
732.00	229.58
733.00	222.48
734.00	217.61
735.00	211.56
736.00	207.59
737.00	202.90
738.00	200.26
739.00	196.59
740.00	194.56
741.00	191.13
742.00	189.01
743.00	186.82
744.00	186.03
745.00	184.68
746.00	183.04
747.00	181.35
748.00	180.80
749.00	178.74
750.00	179.15
751.00	178.47
752.00	177.34
753.00	176.58
754.00	177.40
755.00	175.25
756.00	175.00
757.00	175.06
758.00	175.53
759.00	173.40
760.00	172.61
761.00	173.03
762.00	171.67
763.00	173.02
764.00	171.69
765.00	172.63
766.00	171.72
767.00	171.65
768.00	170.80
769.00	170.65
770.00	170.48
771.00	170.55
772.00	169.36
773.00	170.51
774.00	170.38
775.00	170.52
776.00	168.96
777.00	169.64
778.00	169.87
779.00	169.23
780.00	169.75
781.00	169.54
782.00	170.10
783.00	171.10
784.00	168.72
785.00	170.66
786.00	170.02
787.00	170.95
788.00	169.00
789.00	169.78
790.00	170.40
791.00	168.56
792.00	169.55
793.00	169.53
794.00	168.98
795.00	167.91
796.00	169.26
797.00	167.34
798.00	168.84
799.00	168.48
800.00	168.04
801.00	169.04
802.00	167.28
803.00	168.33
804.00	168.93
805.00	168.18
806.00	168.36
807.00	168.60
808.00	166.81
809.00	167.52
810.00	168.66
811.00	168.42
812.00	168.04
813.00	168.76
814.00	168.00
815.00	168.80
816.00	167.95
817.00	169.10
818.00	167.39
819.00	167.82
820.00	167.81
821.00	167.14
822.00	168.45
823.00	167.51
824.00	166.73
825.00	168.62
826.00	168.19
827.00	168.04
828.00	168.64
829.00	167.49
830.00	168.92
831.00	167.93
832.00	167.83
833.00	167.22
834.00	166.87
835.00	168.25
836.00	167.24
837.00	167.24
838.00	168.14
839.00	167.08
840.00	167.52
841.00	167.83
842.00	168.30
843.00	166.58
844.00	167.96
845.00	168.32
846.00	167.61
847.00	167.06
848.00	167.36
849.00	167.09
850.00	175.47
851.00	167.12
852.00	167.08
853.00	168.06
854.00	167.99
855.00	169.12
856.00	167.97
857.00	168.48
858.00	169.07
859.00	167.43
860.00	167.89
861.00	167.96
862.00	167.44
863.00	167.57
864.00	167.23
865.00	167.36
866.00	167.20
867.00	167.69
868.00	168.77
869.00	167.94
870.00	168.11
871.00	167.39
872.00	168.89
873.00	168.40
874.00	167.63
875.00	167.22
876.00	167.31
877.00	167.24
878.00	168.13
879.00	166.35
880.00	167.83
881.00	167.79
882.00	166.89
883.00	167.08
884.00	167.92
885.00	167.22
886.00	166.69
887.00	167.41
888.00	167.33
889.00	166.86
890.00	168.21
891.00	167.87
892.00	169.50
893.00	167.12
894.00	167.48
895.00	168.01
896.00	168.53
897.00	167.57
898.00	167.05
899.00	168.16
900.00	167.06
901.00	168.85
902.00	166.36
903.00	167.84
904.00	167.44
905.00	169.88
906.00	168.60
907.00	167.83
908.00	167.27
909.00	167.37
910.00	169.00
911.00	168.36
912.00	169.30
913.00	167.11
914.00	166.90
915.00	168.58
916.00	167.73
917.00	166.85
918.00	167.92
919.00	169.18
920.00	167.79
921.00	168.00
922.00	166.86
923.00	166.66
924.00	168.08
925.00	170.60
926.00	168.77
927.00	166.64
928.00	168.83
929.00	166.41
930.00	167.51
931.00	168.57
932.00	167.79
933.00	170.00
934.00	167.37
935.00	167.09
936.00	167.21
937.00	168.34
938.00	168.89
939.00	167.60
940.00	167.69
941.00	168.60
942.00	169.33
943.00	168.26
944.00	167.82
945.00	167.71
946.00	168.71
947.00	167.35
948.00	167.42
949.00	166.75
950.00	167.87
951.00	168.19
952.00	167.86
953.00	167.58
954.00	167.84
955.00	167.52
956.00	169.00
957.00	168.37
958.00	167.66
959.00	167.68
960.00	169.43
961.00	168.60
962.00	169.23
963.00	167.50
964.00	167.88
965.00	167.85
966.00	168.36
967.00	168.10
968.00	169.22
969.00	169.68
970.00	167.62
971.00	166.91
972.00	169.83
973.00	167.73
974.00	168.05
975.00	167.13
976.00	168.20
977.00	167.49
978.00	167.80
979.00	168.38
980.00	167.95
981.00	167.23
982.00	168.09
983.00	166.66
984.00	163.92
985.00	167.48
986.00	167.46
987.00	168.03
988.00	168.38
989.00	167.80
990.00	167.39
991.00	167.83
992.00	167.78
993.00	167.99
994.00	167.31
995.00	168.33
996.00	169.57
997.00	168.67
998.00	168.19
999.00	168.91
1000.00	166.64
>>>>>End Processed Spectral Data<<<<<
