SpectraSuite Data File
++++++++++++++++++++++++++++++++++++
Date: Tue Jul 07 14:12:41 PDT 2026
User: Stephen Warren
Dark Spectrum Present: No
Reference Spectrum Present: No
Number of Sampled Component Spectra: 1
Spectrometers: USB2G24357
Integration Time (usec): 48000 (USB2G24357)
Spectra Averaged: 200 (USB2G24357)
Boxcar Smoothing: 0 (USB2G24357)
Correct for Electrical Dark: No (USB2G24357)
Strobe/Lamp Enabled: No (USB2G24357)
Correct for Detector Non-linearity: No (USB2G24357)
Correct for Stray Light: No (USB2G24357)
Number of Pixels in Processed Spectrum: 651
>>>>>Begin Processed Spectral Data<<<<<
350.00	165.27
351.00	165.93
352.00	166.43
353.00	166.84
354.00	166.64
355.00	166.93
356.00	166.15
357.00	166.20
358.00	167.43
359.00	166.63
360.00	166.51
361.00	167.39
362.00	166.73
363.00	166.30
364.00	166.99
365.00	166.45
366.00	167.21
367.00	167.87
368.00	167.61
369.00	168.12
370.00	167.43
371.00	167.92
372.00	167.73
373.00	168.81
374.00	167.80
375.00	167.17
376.00	166.90
377.00	168.18
378.00	168.54
379.00	168.08
380.00	166.93
381.00	168.21
382.00	167.62
383.00	167.12
384.00	168.01
385.00	167.52
386.00	167.97
387.00	167.74
388.00	167.57
389.00	168.54
390.00	168.00
391.00	168.07
392.00	169.01
393.00	170.12
394.00	169.39
395.00	172.30
396.00	169.37
397.00	169.58
398.00	170.80
399.00	171.29
400.00	171.85
401.00	172.14
402.00	172.88
403.00	173.36
404.00	172.66
405.00	174.11
406.00	174.12
407.00	174.73
408.00	175.10
409.00	176.33
410.00	176.00
411.00	176.93
412.00	179.07
413.00	180.42
414.00	181.63
415.00	182.26
416.00	184.40
417.00	184.67
418.00	185.74
419.00	189.44
420.00	189.26
421.00	189.59
422.00	190.09
423.00	190.77
424.00	192.05
425.00	193.60
426.00	194.29
427.00	196.05
428.00	196.28
429.00	197.66
430.00	198.98
431.00	200.28
432.00	203.23
433.00	205.21
434.00	208.84
435.00	210.44
436.00	213.55
437.00	216.62
438.00	219.76
439.00	221.86
440.00	226.87
441.00	228.95
442.00	230.45
443.00	234.17
444.00	235.56
445.00	235.19
446.00	236.02
447.00	238.78
448.00	240.31
449.00	241.30
450.00	241.93
451.00	241.81
452.00	242.43
453.00	245.96
454.00	248.19
455.00	250.91
456.00	254.34
457.00	257.98
458.00	260.36
459.00	264.48
460.00	268.23
461.00	272.82
462.00	278.62
463.00	283.94
464.00	287.31
465.00	292.64
466.00	296.97
467.00	303.60
468.00	307.39
469.00	310.29
470.00	315.34
471.00	317.28
472.00	317.23
473.00	320.47
474.00	323.37
475.00	327.95
476.00	332.26
477.00	335.68
478.00	340.55
479.00	345.99
480.00	350.91
481.00	354.76
482.00	360.60
483.00	366.99
484.00	375.40
485.00	382.69
486.00	388.40
487.00	397.44
488.00	403.98
489.00	413.01
490.00	422.30
491.00	430.91
492.00	441.74
493.00	449.89
494.00	456.56
495.00	464.58
496.00	472.81
497.00	480.86
498.00	486.80
499.00	489.39
500.00	494.18
501.00	495.41
502.00	498.55
503.00	498.27
504.00	498.80
505.00	498.54
506.00	497.40
507.00	498.16
508.00	497.23
509.00	494.94
510.00	494.54
511.00	494.70
512.00	494.44
513.00	493.82
514.00	497.90
515.00	500.01
516.00	500.18
517.00	502.47
518.00	504.34
519.00	510.24
520.00	510.34
521.00	516.37
522.00	519.27
523.00	523.55
524.00	525.59
525.00	530.61
526.00	534.31
527.00	537.74
528.00	541.97
529.00	548.33
530.00	551.11
531.00	554.82
532.00	563.55
533.00	570.68
534.00	577.27
535.00	584.14
536.00	592.07
537.00	597.78
538.00	600.99
539.00	608.70
540.00	610.51
541.00	611.85
542.00	611.07
543.00	611.93
544.00	611.85
545.00	612.20
546.00	608.58
547.00	612.64
548.00	609.68
549.00	608.24
550.00	606.75
551.00	605.43
552.00	602.76
553.00	604.57
554.00	606.86
555.00	608.34
556.00	610.17
557.00	608.23
558.00	609.69
559.00	611.47
560.00	609.65
561.00	611.87
562.00	618.32
563.00	619.26
564.00	622.29
565.00	626.82
566.00	630.15
567.00	632.35
568.00	638.49
569.00	641.65
570.00	650.26
571.00	657.59
572.00	664.79
573.00	670.26
574.00	679.07
575.00	687.30
576.00	691.64
577.00	698.00
578.00	710.68
579.00	711.37
580.00	721.12
581.00	725.61
582.00	729.99
583.00	735.72
584.00	740.96
585.00	740.51
586.00	741.28
587.00	746.39
588.00	745.19
589.00	747.66
590.00	747.90
591.00	743.69
592.00	741.71
593.00	738.22
594.00	736.47
595.00	734.24
596.00	731.38
597.00	730.20
598.00	725.65
599.00	721.57
600.00	719.86
601.00	719.90
602.00	718.07
603.00	718.05
604.00	715.51
605.00	715.78
606.00	713.21
607.00	710.76
608.00	709.61
609.00	711.86
610.00	709.63
611.00	712.12
612.00	716.79
613.00	710.19
614.00	716.30
615.00	714.56
616.00	719.20
617.00	718.22
618.00	722.09
619.00	723.32
620.00	725.11
621.00	729.06
622.00	730.29
623.00	730.16
624.00	735.40
625.00	739.79
626.00	740.85
627.00	746.00
628.00	746.94
629.00	750.58
630.00	751.30
631.00	753.47
632.00	754.48
633.00	756.77
634.00	754.98
635.00	757.38
636.00	754.04
637.00	755.16
638.00	753.68
639.00	752.58
640.00	753.71
641.00	746.59
642.00	743.58
643.00	738.69
644.00	735.42
645.00	732.65
646.00	727.93
647.00	719.48
648.00	713.31
649.00	707.35
650.00	701.18
651.00	695.25
652.00	691.09
653.00	685.93
654.00	680.76
655.00	674.10
656.00	670.76
657.00	661.79
658.00	658.61
659.00	649.38
660.00	647.63
661.00	642.22
662.00	636.57
663.00	630.81
664.00	627.20
665.00	621.52
666.00	619.35
667.00	611.95
668.00	611.84
669.00	606.30
670.00	601.89
671.00	591.85
672.00	582.28
673.00	579.54
674.00	586.31
675.00	582.16
676.00	580.20
677.00	576.37
678.00	568.97
679.00	567.00
680.00	564.17
681.00	560.93
682.00	557.46
683.00	551.80
684.00	550.31
685.00	544.34
686.00	543.38
687.00	539.11
688.00	534.16
689.00	529.79
690.00	526.42
691.00	522.64
692.00	519.37
693.00	517.80
694.00	510.66
695.00	506.63
696.00	504.18
697.00	498.82
698.00	492.33
699.00	488.76
700.00	480.73
701.00	474.85
702.00	468.24
703.00	465.70
704.00	453.44
705.00	446.71
706.00	439.63
707.00	431.12
708.00	421.85
709.00	413.27
710.00	402.88
711.00	392.69
712.00	381.97
713.00	372.56
714.00	362.58
715.00	352.73
716.00	343.19
717.00	332.93
718.00	322.06
719.00	312.21
720.00	303.99
721.00	295.23
722.00	286.66
723.00	279.43
724.00	270.15
725.00	261.71
726.00	255.64
727.00	248.46
728.00	241.35
729.00	234.35
730.00	229.91
731.00	224.14
732.00	220.90
733.00	214.08
734.00	209.67
735.00	204.85
736.00	201.14
737.00	197.92
738.00	195.32
739.00	192.16
740.00	190.15
741.00	187.11
742.00	185.31
743.00	183.79
744.00	183.07
745.00	181.24
746.00	180.52
747.00	179.05
748.00	178.12
749.00	176.62
750.00	176.82
751.00	175.99
752.00	175.42
753.00	174.86
754.00	176.00
755.00	173.14
756.00	173.64
757.00	173.10
758.00	174.36
759.00	171.81
760.00	171.47
761.00	171.40
762.00	170.36
763.00	171.58
764.00	170.22
765.00	171.66
766.00	170.37
767.00	170.14
768.00	169.99
769.00	169.51
770.00	169.51
771.00	169.67
772.00	168.53
773.00	169.19
774.00	169.06
775.00	169.95
776.00	167.90
777.00	168.53
778.00	168.99
779.00	168.14
780.00	168.36
781.00	168.82
782.00	169.04
783.00	170.15
784.00	168.20
785.00	169.48
786.00	169.40
787.00	169.60
788.00	168.37
789.00	169.06
790.00	169.48
791.00	167.78
792.00	168.49
793.00	168.37
794.00	167.98
795.00	167.41
796.00	168.90
797.00	167.20
798.00	168.21
799.00	168.06
800.00	167.82
801.00	168.36
802.00	166.93
803.00	167.54
804.00	168.36
805.00	167.72
806.00	167.26
807.00	167.22
808.00	166.47
809.00	167.48
810.00	168.26
811.00	167.81
812.00	167.39
813.00	168.53
814.00	167.18
815.00	168.21
816.00	167.55
817.00	168.50
818.00	167.35
819.00	166.91
820.00	167.05
821.00	166.87
822.00	167.80
823.00	167.30
824.00	166.16
825.00	168.23
826.00	167.78
827.00	167.26
828.00	168.00
829.00	166.61
830.00	168.16
831.00	167.44
832.00	167.77
833.00	167.06
834.00	166.45
835.00	167.64
836.00	166.71
837.00	166.48
838.00	167.25
839.00	166.75
840.00	166.66
841.00	167.20
842.00	167.40
843.00	165.90
844.00	167.47
845.00	167.74
846.00	166.91
847.00	166.50
848.00	167.03
849.00	166.87
850.00	175.06
851.00	166.43
852.00	166.48
853.00	167.75
854.00	167.99
855.00	168.97
856.00	167.84
857.00	168.18
858.00	168.38
859.00	166.84
860.00	167.61
861.00	167.35
862.00	166.85
863.00	166.92
864.00	166.54
865.00	166.71
866.00	166.57
867.00	167.35
868.00	168.38
869.00	167.51
870.00	167.32
871.00	167.03
872.00	168.27
873.00	168.21
874.00	167.29
875.00	166.61
876.00	166.81
877.00	167.06
878.00	167.14
879.00	165.92
880.00	167.56
881.00	167.42
882.00	166.29
883.00	166.81
884.00	167.31
885.00	166.91
886.00	166.14
887.00	166.99
888.00	166.77
889.00	165.78
890.00	167.14
891.00	167.32
892.00	169.09
893.00	166.68
894.00	166.79
895.00	167.60
896.00	167.70
897.00	167.47
898.00	166.21
899.00	167.64
900.00	166.30
901.00	168.18
902.00	166.25
903.00	167.24
904.00	166.30
905.00	169.40
906.00	168.32
907.00	167.15
908.00	166.86
909.00	166.33
910.00	168.51
911.00	167.97
912.00	168.37
913.00	166.01
914.00	166.52
915.00	167.80
916.00	166.95
917.00	166.12
918.00	167.00
919.00	169.00
920.00	167.47
921.00	167.15
922.00	166.23
923.00	166.09
924.00	167.46
925.00	170.83
926.00	168.39
927.00	166.21
928.00	168.48
929.00	166.13
930.00	166.93
931.00	168.28
932.00	167.38
933.00	169.41
934.00	167.15
935.00	167.05
936.00	166.93
937.00	168.20
938.00	168.57
939.00	167.19
940.00	166.89
941.00	168.07
942.00	169.09
943.00	167.45
944.00	167.36
945.00	167.24
946.00	167.43
947.00	166.47
948.00	166.90
949.00	166.11
950.00	167.44
951.00	167.43
952.00	167.42
953.00	167.04
954.00	167.27
955.00	166.88
956.00	168.38
957.00	167.36
958.00	166.99
959.00	167.15
960.00	168.58
961.00	167.67
962.00	168.51
963.00	166.76
964.00	167.07
965.00	167.39
966.00	167.77
967.00	167.42
968.00	169.08
969.00	169.35
970.00	166.98
971.00	166.68
972.00	169.02
973.00	167.59
974.00	167.75
975.00	166.84
976.00	167.65
977.00	167.57
978.00	166.95
979.00	167.54
980.00	167.62
981.00	167.15
982.00	167.83
983.00	166.24
984.00	163.84
985.00	167.10
986.00	167.04
987.00	167.61
988.00	167.85
989.00	167.19
990.00	166.75
991.00	167.97
992.00	167.68
993.00	167.94
994.00	166.74
995.00	167.50
996.00	168.87
997.00	168.35
998.00	167.59
999.00	168.50
1000.00	167.04
>>>>>End Processed Spectral Data<<<<<
