SpectraSuite Data File
++++++++++++++++++++++++++++++++++++
Date: Fri Jul 10 12:04:29 PDT 2026
User: Stephen Warren
Dark Spectrum Present: No
Reference Spectrum Present: No
Number of Sampled Component Spectra: 1
Spectrometers: USB2G24357
Integration Time (usec): 48000 (USB2G24357)
Spectra Averaged: 200 (USB2G24357)
Boxcar Smoothing: 0 (USB2G24357)
Correct for Electrical Dark: No (USB2G24357)
Strobe/Lamp Enabled: No (USB2G24357)
Correct for Detector Non-linearity: No (USB2G24357)
Correct for Stray Light: No (USB2G24357)
Number of Pixels in Processed Spectrum: 651
>>>>>Begin Processed Spectral Data<<<<<
350.00	163.56
351.00	164.04
352.00	164.36
353.00	164.71
354.00	164.60
355.00	164.67
356.00	164.08
357.00	163.69
358.00	166.08
359.00	164.54
360.00	164.29
361.00	165.27
362.00	164.77
363.00	164.54
364.00	164.91
365.00	164.75
366.00	165.18
367.00	165.82
368.00	166.09
369.00	165.62
370.00	165.35
371.00	165.56
372.00	165.69
373.00	166.57
374.00	165.61
375.00	165.40
376.00	164.61
377.00	165.80
378.00	166.41
379.00	165.89
380.00	164.87
381.00	166.52
382.00	165.48
383.00	165.07
384.00	165.10
385.00	165.55
386.00	165.62
387.00	165.85
388.00	165.17
389.00	166.30
390.00	165.54
391.00	165.49
392.00	166.45
393.00	167.08
394.00	166.35
395.00	169.25
396.00	166.08
397.00	165.90
398.00	166.67
399.00	166.75
400.00	166.91
401.00	166.57
402.00	167.07
403.00	167.37
404.00	166.58
405.00	167.22
406.00	167.27
407.00	168.09
408.00	167.69
409.00	168.62
410.00	167.90
411.00	167.57
412.00	168.79
413.00	169.73
414.00	169.93
415.00	170.11
416.00	170.88
417.00	170.17
418.00	170.56
419.00	172.36
420.00	171.98
421.00	172.13
422.00	171.56
423.00	171.20
424.00	172.05
425.00	172.61
426.00	172.63
427.00	173.90
428.00	173.25
429.00	173.05
430.00	173.41
431.00	173.74
432.00	174.62
433.00	175.32
434.00	176.82
435.00	176.86
436.00	177.47
437.00	178.11
438.00	179.53
439.00	179.92
440.00	180.55
441.00	180.94
442.00	180.94
443.00	182.79
444.00	182.66
445.00	182.90
446.00	182.97
447.00	183.23
448.00	184.02
449.00	185.13
450.00	184.78
451.00	183.92
452.00	184.12
453.00	185.10
454.00	185.34
455.00	186.64
456.00	186.85
457.00	188.66
458.00	189.05
459.00	190.23
460.00	190.37
461.00	191.45
462.00	193.44
463.00	194.08
464.00	195.86
465.00	197.02
466.00	197.84
467.00	200.01
468.00	200.49
469.00	201.30
470.00	202.52
471.00	202.29
472.00	202.35
473.00	204.01
474.00	204.35
475.00	205.65
476.00	206.36
477.00	207.73
478.00	209.13
479.00	210.71
480.00	211.42
481.00	211.41
482.00	214.68
483.00	215.35
484.00	217.26
485.00	219.78
486.00	220.55
487.00	222.84
488.00	224.05
489.00	226.75
490.00	229.31
491.00	231.30
492.00	233.68
493.00	236.47
494.00	238.54
495.00	239.56
496.00	242.47
497.00	244.82
498.00	246.56
499.00	246.84
500.00	247.86
501.00	247.64
502.00	247.84
503.00	248.70
504.00	249.73
505.00	249.02
506.00	249.55
507.00	249.77
508.00	250.68
509.00	248.58
510.00	248.77
511.00	248.20
512.00	247.92
513.00	248.75
514.00	249.45
515.00	249.60
516.00	249.94
517.00	250.85
518.00	250.21
519.00	253.21
520.00	253.16
521.00	253.68
522.00	254.98
523.00	256.04
524.00	256.09
525.00	257.51
526.00	258.47
527.00	259.77
528.00	260.44
529.00	262.82
530.00	263.11
531.00	264.02
532.00	266.23
533.00	268.48
534.00	269.86
535.00	273.19
536.00	273.79
537.00	275.11
538.00	275.40
539.00	279.02
540.00	279.43
541.00	279.11
542.00	279.10
543.00	278.86
544.00	278.02
545.00	279.63
546.00	279.05
547.00	282.56
548.00	279.28
549.00	278.04
550.00	278.84
551.00	278.79
552.00	276.37
553.00	277.61
554.00	278.06
555.00	279.02
556.00	278.84
557.00	277.87
558.00	278.52
559.00	279.48
560.00	279.72
561.00	277.74
562.00	281.10
563.00	281.96
564.00	281.71
565.00	283.97
566.00	284.31
567.00	285.82
568.00	286.91
569.00	287.99
570.00	289.45
571.00	291.18
572.00	294.36
573.00	294.66
574.00	296.34
575.00	298.73
576.00	300.30
577.00	300.91
578.00	306.02
579.00	305.62
580.00	308.90
581.00	309.07
582.00	310.51
583.00	312.32
584.00	314.21
585.00	314.04
586.00	313.52
587.00	315.11
588.00	314.89
589.00	315.73
590.00	315.35
591.00	314.58
592.00	314.60
593.00	312.63
594.00	313.71
595.00	311.46
596.00	310.42
597.00	310.79
598.00	310.51
599.00	309.04
600.00	308.58
601.00	307.59
602.00	307.90
603.00	308.74
604.00	307.53
605.00	308.05
606.00	306.91
607.00	305.05
608.00	306.08
609.00	306.44
610.00	305.95
611.00	307.07
612.00	307.91
613.00	305.70
614.00	307.76
615.00	306.42
616.00	308.63
617.00	307.57
618.00	309.66
619.00	309.51
620.00	309.08
621.00	311.86
622.00	310.78
623.00	311.23
624.00	312.45
625.00	313.91
626.00	314.45
627.00	316.78
628.00	315.50
629.00	316.03
630.00	315.72
631.00	317.87
632.00	317.63
633.00	317.06
634.00	317.21
635.00	318.13
636.00	316.74
637.00	317.05
638.00	317.31
639.00	316.34
640.00	315.76
641.00	315.30
642.00	313.01
643.00	313.02
644.00	311.49
645.00	311.47
646.00	310.17
647.00	308.61
648.00	305.90
649.00	304.66
650.00	302.54
651.00	300.72
652.00	299.80
653.00	299.17
654.00	297.60
655.00	296.24
656.00	295.07
657.00	292.36
658.00	293.40
659.00	289.05
660.00	289.03
661.00	286.98
662.00	285.85
663.00	284.28
664.00	284.52
665.00	282.91
666.00	281.78
667.00	279.28
668.00	280.90
669.00	278.47
670.00	276.71
671.00	274.35
672.00	271.69
673.00	270.51
674.00	273.04
675.00	272.41
676.00	271.95
677.00	270.20
678.00	267.95
679.00	267.88
680.00	266.67
681.00	267.24
682.00	265.98
683.00	263.19
684.00	263.44
685.00	262.36
686.00	262.44
687.00	260.90
688.00	258.81
689.00	257.65
690.00	257.82
691.00	256.10
692.00	255.55
693.00	256.04
694.00	253.13
695.00	251.50
696.00	251.12
697.00	250.48
698.00	248.73
699.00	247.92
700.00	246.14
701.00	244.33
702.00	241.69
703.00	245.09
704.00	238.32
705.00	236.96
706.00	236.30
707.00	232.07
708.00	229.77
709.00	228.40
710.00	225.33
711.00	223.52
712.00	219.67
713.00	217.52
714.00	214.65
715.00	212.14
716.00	210.37
717.00	207.71
718.00	205.27
719.00	201.86
720.00	199.56
721.00	198.02
722.00	196.38
723.00	194.53
724.00	191.79
725.00	189.37
726.00	188.17
727.00	185.63
728.00	183.97
729.00	182.26
730.00	181.64
731.00	179.65
732.00	180.22
733.00	177.41
734.00	176.46
735.00	174.95
736.00	173.70
737.00	172.32
738.00	172.30
739.00	170.98
740.00	171.45
741.00	169.77
742.00	169.88
743.00	169.46
744.00	169.77
745.00	169.04
746.00	168.99
747.00	167.91
748.00	167.81
749.00	167.12
750.00	167.61
751.00	167.64
752.00	167.14
753.00	167.36
754.00	168.01
755.00	166.22
756.00	166.09
757.00	166.66
758.00	167.53
759.00	165.85
760.00	165.95
761.00	165.98
762.00	165.67
763.00	166.60
764.00	165.41
765.00	167.02
766.00	166.28
767.00	165.92
768.00	165.68
769.00	165.62
770.00	165.56
771.00	165.72
772.00	164.67
773.00	165.46
774.00	165.49
775.00	166.72
776.00	164.16
777.00	165.34
778.00	165.28
779.00	164.63
780.00	165.19
781.00	165.25
782.00	165.85
783.00	165.30
784.00	164.34
785.00	166.14
786.00	166.06
787.00	166.50
788.00	164.90
789.00	165.71
790.00	166.35
791.00	164.60
792.00	165.60
793.00	165.95
794.00	165.47
795.00	164.82
796.00	166.16
797.00	164.06
798.00	165.39
799.00	165.00
800.00	164.65
801.00	165.92
802.00	164.17
803.00	165.26
804.00	166.08
805.00	165.22
806.00	165.11
807.00	165.23
808.00	164.10
809.00	164.91
810.00	165.88
811.00	165.32
812.00	164.73
813.00	166.37
814.00	165.00
815.00	166.08
816.00	165.15
817.00	166.02
818.00	164.92
819.00	164.79
820.00	164.70
821.00	164.50
822.00	165.47
823.00	164.97
824.00	164.56
825.00	165.94
826.00	165.28
827.00	165.21
828.00	165.68
829.00	164.67
830.00	166.28
831.00	165.13
832.00	165.37
833.00	165.07
834.00	164.59
835.00	165.59
836.00	164.75
837.00	164.63
838.00	165.77
839.00	164.56
840.00	164.56
841.00	165.19
842.00	165.83
843.00	163.78
844.00	165.57
845.00	165.71
846.00	164.91
847.00	164.88
848.00	164.84
849.00	164.50
850.00	173.02
851.00	164.54
852.00	164.21
853.00	165.25
854.00	165.91
855.00	166.71
856.00	165.40
857.00	166.02
858.00	166.54
859.00	164.82
860.00	165.52
861.00	165.32
862.00	165.07
863.00	165.38
864.00	165.21
865.00	164.87
866.00	164.60
867.00	165.00
868.00	166.59
869.00	165.47
870.00	165.57
871.00	165.10
872.00	166.78
873.00	165.78
874.00	165.20
875.00	164.93
876.00	164.63
877.00	164.95
878.00	165.51
879.00	164.03
880.00	165.60
881.00	165.79
882.00	164.02
883.00	164.53
884.00	165.66
885.00	164.80
886.00	164.31
887.00	165.10
888.00	164.72
889.00	164.00
890.00	165.50
891.00	165.34
892.00	167.10
893.00	164.79
894.00	165.12
895.00	165.66
896.00	165.97
897.00	165.79
898.00	165.15
899.00	165.83
900.00	165.01
901.00	166.50
902.00	164.26
903.00	165.41
904.00	164.48
905.00	167.53
906.00	166.40
907.00	165.55
908.00	165.51
909.00	164.70
910.00	166.61
911.00	166.04
912.00	167.08
913.00	164.55
914.00	165.08
915.00	166.18
916.00	165.67
917.00	164.61
918.00	165.35
919.00	167.15
920.00	165.72
921.00	165.44
922.00	164.91
923.00	164.67
924.00	165.79
925.00	168.49
926.00	166.57
927.00	164.68
928.00	166.91
929.00	164.09
930.00	164.82
931.00	166.60
932.00	165.22
933.00	167.59
934.00	165.10
935.00	164.81
936.00	164.79
937.00	166.21
938.00	166.61
939.00	165.41
940.00	165.29
941.00	166.14
942.00	167.05
943.00	165.79
944.00	165.69
945.00	165.03
946.00	165.88
947.00	165.14
948.00	165.31
949.00	164.14
950.00	165.67
951.00	165.52
952.00	165.65
953.00	165.12
954.00	165.06
955.00	164.78
956.00	166.26
957.00	165.66
958.00	165.11
959.00	165.57
960.00	167.13
961.00	166.21
962.00	166.94
963.00	165.32
964.00	165.37
965.00	165.49
966.00	165.89
967.00	165.59
968.00	166.94
969.00	167.66
970.00	165.14
971.00	164.66
972.00	167.45
973.00	165.86
974.00	165.86
975.00	165.21
976.00	165.87
977.00	165.32
978.00	165.35
979.00	165.83
980.00	165.47
981.00	165.41
982.00	165.94
983.00	164.30
984.00	162.05
985.00	164.95
986.00	165.65
987.00	166.32
988.00	166.25
989.00	165.61
990.00	165.35
991.00	165.61
992.00	165.69
993.00	165.67
994.00	164.68
995.00	165.67
996.00	167.04
997.00	167.62
998.00	166.15
999.00	166.30
1000.00	164.77
>>>>>End Processed Spectral Data<<<<<
