SpectraSuite Data File
++++++++++++++++++++++++++++++++++++
Date: Fri Jul 10 12:06:27 PDT 2026
User: Stephen Warren
Dark Spectrum Present: No
Reference Spectrum Present: No
Number of Sampled Component Spectra: 1
Spectrometers: USB2G24357
Integration Time (usec): 48000 (USB2G24357)
Spectra Averaged: 200 (USB2G24357)
Boxcar Smoothing: 0 (USB2G24357)
Correct for Electrical Dark: No (USB2G24357)
Strobe/Lamp Enabled: No (USB2G24357)
Correct for Detector Non-linearity: No (USB2G24357)
Correct for Stray Light: No (USB2G24357)
Number of Pixels in Processed Spectrum: 651
>>>>>Begin Processed Spectral Data<<<<<
350.00	165.14
351.00	165.43
352.00	166.07
353.00	166.70
354.00	166.22
355.00	166.31
356.00	166.14
357.00	165.61
358.00	167.52
359.00	166.49
360.00	166.20
361.00	167.10
362.00	166.90
363.00	166.43
364.00	166.83
365.00	166.40
366.00	166.77
367.00	167.26
368.00	167.06
369.00	167.37
370.00	166.90
371.00	167.47
372.00	167.29
373.00	168.36
374.00	166.93
375.00	166.63
376.00	166.19
377.00	167.54
378.00	168.04
379.00	167.39
380.00	166.41
381.00	167.97
382.00	167.25
383.00	166.86
384.00	167.29
385.00	166.96
386.00	167.47
387.00	167.40
388.00	167.25
389.00	168.35
390.00	167.33
391.00	167.27
392.00	168.21
393.00	168.65
394.00	168.16
395.00	171.06
396.00	168.31
397.00	167.90
398.00	168.15
399.00	168.54
400.00	168.63
401.00	168.40
402.00	168.98
403.00	169.40
404.00	168.43
405.00	168.99
406.00	169.07
407.00	169.90
408.00	169.49
409.00	170.46
410.00	169.68
411.00	169.74
412.00	170.96
413.00	171.40
414.00	171.54
415.00	171.64
416.00	172.76
417.00	171.65
418.00	171.87
419.00	174.58
420.00	173.65
421.00	174.22
422.00	173.44
423.00	173.65
424.00	173.97
425.00	174.88
426.00	174.13
427.00	175.80
428.00	175.08
429.00	175.03
430.00	175.87
431.00	175.46
432.00	176.79
433.00	177.50
434.00	178.67
435.00	178.83
436.00	179.37
437.00	180.60
438.00	181.50
439.00	181.85
440.00	183.03
441.00	183.10
442.00	183.97
443.00	185.56
444.00	185.07
445.00	185.22
446.00	184.83
447.00	185.71
448.00	186.33
449.00	187.75
450.00	187.50
451.00	186.37
452.00	186.86
453.00	187.50
454.00	188.69
455.00	189.30
456.00	190.31
457.00	191.38
458.00	192.13
459.00	192.57
460.00	193.39
461.00	194.54
462.00	196.87
463.00	197.80
464.00	199.89
465.00	200.23
466.00	201.08
467.00	203.77
468.00	204.02
469.00	204.47
470.00	206.19
471.00	205.98
472.00	206.00
473.00	207.67
474.00	207.88
475.00	209.73
476.00	210.31
477.00	211.49
478.00	212.63
479.00	214.39
480.00	215.17
481.00	215.74
482.00	217.97
483.00	218.99
484.00	221.92
485.00	224.95
486.00	225.66
487.00	227.46
488.00	228.58
489.00	231.76
490.00	233.74
491.00	236.12
492.00	239.92
493.00	241.60
494.00	244.31
495.00	245.09
496.00	247.77
497.00	250.43
498.00	252.30
499.00	251.87
500.00	253.59
501.00	253.35
502.00	254.28
503.00	255.35
504.00	256.04
505.00	254.14
506.00	255.34
507.00	255.57
508.00	256.47
509.00	254.86
510.00	254.96
511.00	254.08
512.00	253.66
513.00	254.49
514.00	255.17
515.00	255.96
516.00	255.82
517.00	256.93
518.00	256.01
519.00	259.98
520.00	259.45
521.00	259.44
522.00	260.67
523.00	262.17
524.00	262.59
525.00	263.79
526.00	264.54
527.00	266.00
528.00	267.15
529.00	269.58
530.00	269.23
531.00	270.88
532.00	273.12
533.00	275.81
534.00	277.76
535.00	279.34
536.00	280.65
537.00	282.58
538.00	282.93
539.00	286.36
540.00	286.52
541.00	285.83
542.00	286.17
543.00	286.93
544.00	285.93
545.00	286.82
546.00	285.39
547.00	289.34
548.00	286.80
549.00	284.94
550.00	285.59
551.00	285.56
552.00	283.41
553.00	284.01
554.00	285.23
555.00	286.91
556.00	286.40
557.00	285.43
558.00	285.43
559.00	287.42
560.00	287.06
561.00	285.70
562.00	287.99
563.00	288.86
564.00	289.43
565.00	291.42
566.00	291.57
567.00	292.61
568.00	294.63
569.00	294.97
570.00	298.07
571.00	299.64
572.00	302.26
573.00	302.37
574.00	304.85
575.00	307.21
576.00	307.81
577.00	309.35
578.00	314.34
579.00	313.69
580.00	318.27
581.00	317.82
582.00	319.76
583.00	320.84
584.00	322.96
585.00	323.04
586.00	322.87
587.00	323.86
588.00	323.41
589.00	323.86
590.00	324.46
591.00	323.24
592.00	323.43
593.00	321.99
594.00	321.20
595.00	320.20
596.00	318.54
597.00	318.95
598.00	318.43
599.00	317.85
600.00	317.15
601.00	316.80
602.00	315.58
603.00	316.62
604.00	315.86
605.00	316.14
606.00	315.36
607.00	313.62
608.00	314.25
609.00	314.53
610.00	314.16
611.00	314.26
612.00	315.84
613.00	313.41
614.00	315.35
615.00	314.82
616.00	317.28
617.00	315.99
618.00	318.28
619.00	317.28
620.00	317.73
621.00	319.81
622.00	319.26
623.00	318.83
624.00	320.80
625.00	322.48
626.00	322.64
627.00	325.67
628.00	324.33
629.00	324.48
630.00	324.34
631.00	325.59
632.00	326.17
633.00	326.16
634.00	326.28
635.00	326.43
636.00	325.31
637.00	326.50
638.00	326.43
639.00	325.09
640.00	324.54
641.00	324.46
642.00	322.18
643.00	321.37
644.00	320.11
645.00	320.02
646.00	318.05
647.00	316.88
648.00	315.00
649.00	313.52
650.00	310.74
651.00	309.32
652.00	308.31
653.00	307.65
654.00	305.91
655.00	304.22
656.00	303.20
657.00	300.40
658.00	300.47
659.00	296.41
660.00	296.08
661.00	294.04
662.00	293.13
663.00	291.97
664.00	291.71
665.00	289.41
666.00	288.63
667.00	286.23
668.00	287.87
669.00	285.75
670.00	283.09
671.00	281.37
672.00	278.79
673.00	278.30
674.00	280.23
675.00	279.12
676.00	278.79
677.00	277.32
678.00	274.68
679.00	273.97
680.00	273.58
681.00	273.82
682.00	272.98
683.00	269.84
684.00	270.43
685.00	268.66
686.00	269.18
687.00	267.22
688.00	265.59
689.00	264.08
690.00	263.63
691.00	261.83
692.00	261.34
693.00	261.90
694.00	259.85
695.00	258.10
696.00	257.56
697.00	255.86
698.00	254.34
699.00	252.45
700.00	251.08
701.00	249.39
702.00	247.32
703.00	250.47
704.00	244.31
705.00	241.90
706.00	241.51
707.00	236.78
708.00	235.42
709.00	233.40
710.00	229.89
711.00	227.59
712.00	224.00
713.00	221.30
714.00	218.73
715.00	216.14
716.00	214.58
717.00	211.24
718.00	209.18
719.00	205.76
720.00	202.91
721.00	201.00
722.00	199.01
723.00	197.61
724.00	195.17
725.00	192.76
726.00	190.97
727.00	188.73
728.00	186.46
729.00	184.82
730.00	183.87
731.00	181.96
732.00	182.53
733.00	179.59
734.00	178.71
735.00	177.01
736.00	175.80
737.00	174.79
738.00	174.71
739.00	172.96
740.00	173.45
741.00	171.52
742.00	171.24
743.00	171.18
744.00	171.46
745.00	170.91
746.00	170.75
747.00	169.90
748.00	169.87
749.00	169.40
750.00	169.53
751.00	169.76
752.00	168.95
753.00	168.66
754.00	170.26
755.00	167.94
756.00	168.50
757.00	168.47
758.00	169.45
759.00	167.78
760.00	168.29
761.00	167.62
762.00	166.63
763.00	168.85
764.00	167.07
765.00	169.01
766.00	167.80
767.00	168.11
768.00	167.57
769.00	167.28
770.00	167.01
771.00	167.32
772.00	166.93
773.00	168.12
774.00	167.50
775.00	168.02
776.00	166.26
777.00	166.61
778.00	167.43
779.00	166.24
780.00	166.86
781.00	167.31
782.00	167.32
783.00	168.92
784.00	166.35
785.00	168.09
786.00	168.30
787.00	168.46
788.00	166.52
789.00	167.62
790.00	168.44
791.00	166.45
792.00	167.32
793.00	167.34
794.00	166.65
795.00	166.40
796.00	167.91
797.00	166.04
798.00	167.81
799.00	167.17
800.00	166.57
801.00	167.40
802.00	166.36
803.00	166.82
804.00	167.77
805.00	166.65
806.00	166.87
807.00	167.09
808.00	165.81
809.00	166.92
810.00	167.52
811.00	167.14
812.00	166.36
813.00	168.03
814.00	167.03
815.00	167.80
816.00	167.09
817.00	167.92
818.00	166.50
819.00	166.77
820.00	166.21
821.00	166.36
822.00	167.66
823.00	166.62
824.00	165.81
825.00	167.40
826.00	166.94
827.00	167.33
828.00	167.98
829.00	167.07
830.00	167.98
831.00	167.76
832.00	167.08
833.00	166.90
834.00	166.29
835.00	167.19
836.00	166.81
837.00	166.40
838.00	166.84
839.00	166.49
840.00	166.43
841.00	167.49
842.00	167.45
843.00	165.79
844.00	167.08
845.00	167.26
846.00	166.39
847.00	166.25
848.00	166.50
849.00	166.35
850.00	174.78
851.00	166.35
852.00	166.39
853.00	167.41
854.00	167.33
855.00	168.74
856.00	167.40
857.00	167.47
858.00	168.14
859.00	166.72
860.00	166.88
861.00	166.99
862.00	166.84
863.00	167.04
864.00	166.83
865.00	166.88
866.00	165.90
867.00	167.41
868.00	168.53
869.00	167.14
870.00	167.40
871.00	166.84
872.00	168.38
873.00	167.47
874.00	167.11
875.00	166.43
876.00	166.30
877.00	166.39
878.00	167.05
879.00	165.92
880.00	167.17
881.00	167.24
882.00	165.84
883.00	166.47
884.00	167.24
885.00	166.55
886.00	165.74
887.00	166.54
888.00	166.51
889.00	165.86
890.00	167.48
891.00	167.20
892.00	168.73
893.00	166.57
894.00	166.84
895.00	167.47
896.00	167.51
897.00	167.40
898.00	166.50
899.00	167.67
900.00	166.32
901.00	168.09
902.00	166.02
903.00	166.83
904.00	166.15
905.00	169.20
906.00	167.95
907.00	167.28
908.00	166.96
909.00	166.56
910.00	168.37
911.00	167.96
912.00	168.81
913.00	166.21
914.00	166.91
915.00	167.52
916.00	167.29
917.00	166.20
918.00	167.07
919.00	172.31
920.00	167.61
921.00	167.41
922.00	166.49
923.00	166.39
924.00	167.49
925.00	169.98
926.00	168.28
927.00	166.45
928.00	168.21
929.00	166.14
930.00	167.07
931.00	168.07
932.00	166.96
933.00	168.91
934.00	166.82
935.00	166.53
936.00	166.76
937.00	168.08
938.00	168.17
939.00	167.39
940.00	167.20
941.00	168.08
942.00	168.98
943.00	167.57
944.00	167.26
945.00	167.05
946.00	167.65
947.00	166.64
948.00	166.52
949.00	166.60
950.00	167.15
951.00	167.49
952.00	167.84
953.00	166.86
954.00	167.15
955.00	167.04
956.00	168.21
957.00	167.52
958.00	167.17
959.00	167.70
960.00	168.63
961.00	167.72
962.00	168.93
963.00	166.68
964.00	167.37
965.00	167.31
966.00	167.92
967.00	167.30
968.00	169.17
969.00	169.38
970.00	166.98
971.00	166.42
972.00	168.89
973.00	167.20
974.00	168.26
975.00	166.83
976.00	167.82
977.00	167.28
978.00	166.84
979.00	167.07
980.00	167.27
981.00	167.21
982.00	167.56
983.00	165.87
984.00	163.40
985.00	166.67
986.00	166.88
987.00	167.20
988.00	167.88
989.00	167.44
990.00	167.31
991.00	167.30
992.00	167.63
993.00	167.48
994.00	166.86
995.00	167.70
996.00	168.88
997.00	169.89
998.00	167.35
999.00	168.15
1000.00	166.64
>>>>>End Processed Spectral Data<<<<<
