SpectraSuite Data File
++++++++++++++++++++++++++++++++++++
Date: Mon Jun 02 11:55:05 PDT 2025
User: Stephen Warren
Dark Spectrum Present: No
Reference Spectrum Present: No
Number of Sampled Component Spectra: 1
Spectrometers: USB2G24357
Integration Time (usec): 48000 (USB2G24357)
Spectra Averaged: 200 (USB2G24357)
Boxcar Smoothing: 0 (USB2G24357)
Correct for Electrical Dark: No (USB2G24357)
Strobe/Lamp Enabled: No (USB2G24357)
Correct for Detector Non-linearity: No (USB2G24357)
Correct for Stray Light: No (USB2G24357)
Number of Pixels in Processed Spectrum: 651
>>>>>Begin Processed Spectral Data<<<<<
350.00	146.21
351.00	146.68
352.00	147.52
353.00	147.43
354.00	147.26
355.00	147.62
356.00	146.98
357.00	146.97
358.00	148.83
359.00	147.46
360.00	147.15
361.00	147.99
362.00	147.65
363.00	147.23
364.00	148.16
365.00	147.58
366.00	147.70
367.00	148.19
368.00	148.52
369.00	148.75
370.00	148.45
371.00	148.43
372.00	148.16
373.00	149.58
374.00	148.35
375.00	148.16
376.00	147.70
377.00	148.82
378.00	149.11
379.00	149.01
380.00	148.19
381.00	149.38
382.00	148.88
383.00	148.38
384.00	148.31
385.00	148.62
386.00	148.86
387.00	148.62
388.00	148.74
389.00	149.45
390.00	148.68
391.00	149.33
392.00	150.34
393.00	151.16
394.00	150.53
395.00	153.97
396.00	151.62
397.00	151.68
398.00	152.57
399.00	153.63
400.00	153.46
401.00	153.91
402.00	155.13
403.00	156.20
404.00	155.41
405.00	156.65
406.00	157.07
407.00	158.44
408.00	158.51
409.00	159.76
410.00	159.74
411.00	160.17
412.00	162.89
413.00	164.63
414.00	166.10
415.00	167.40
416.00	169.54
417.00	170.34
418.00	171.39
419.00	175.18
420.00	176.33
421.00	177.14
422.00	177.96
423.00	178.48
424.00	180.41
425.00	183.04
426.00	183.36
427.00	186.50
428.00	187.05
429.00	188.88
430.00	191.50
431.00	193.79
432.00	197.84
433.00	201.21
434.00	205.43
435.00	208.46
436.00	212.31
437.00	216.77
438.00	221.90
439.00	224.91
440.00	231.60
441.00	234.94
442.00	237.31
443.00	241.70
444.00	245.11
445.00	245.34
446.00	247.77
447.00	250.33
448.00	252.14
449.00	253.48
450.00	254.35
451.00	254.90
452.00	255.28
453.00	260.14
454.00	262.72
455.00	265.66
456.00	269.59
457.00	274.42
458.00	278.36
459.00	282.47
460.00	288.85
461.00	294.83
462.00	302.31
463.00	311.00
464.00	314.83
465.00	322.37
466.00	329.77
467.00	337.59
468.00	343.72
469.00	349.00
470.00	355.33
471.00	358.91
472.00	359.81
473.00	365.81
474.00	369.75
475.00	375.97
476.00	382.19
477.00	386.16
478.00	393.03
479.00	400.61
480.00	408.20
481.00	413.74
482.00	421.19
483.00	432.02
484.00	441.61
485.00	452.34
486.00	460.74
487.00	473.74
488.00	483.51
489.00	495.93
490.00	509.12
491.00	521.53
492.00	537.94
493.00	549.10
494.00	560.13
495.00	572.20
496.00	583.87
497.00	594.41
498.00	603.20
499.00	607.27
500.00	614.72
501.00	618.06
502.00	621.50
503.00	623.43
504.00	623.98
505.00	622.81
506.00	623.98
507.00	624.87
508.00	623.95
509.00	621.90
510.00	621.67
511.00	623.74
512.00	623.22
513.00	623.81
514.00	628.50
515.00	631.66
516.00	634.22
517.00	636.84
518.00	639.78
519.00	648.56
520.00	648.20
521.00	657.45
522.00	661.06
523.00	668.19
524.00	671.26
525.00	680.36
526.00	687.57
527.00	693.68
528.00	701.87
529.00	716.53
530.00	724.87
531.00	732.89
532.00	748.68
533.00	760.65
534.00	774.71
535.00	785.75
536.00	800.53
537.00	807.16
538.00	813.06
539.00	825.99
540.00	827.12
541.00	831.30
542.00	832.29
543.00	834.46
544.00	835.62
545.00	836.55
546.00	832.68
547.00	839.43
548.00	836.27
549.00	837.99
550.00	835.66
551.00	836.32
552.00	832.80
553.00	839.29
554.00	842.61
555.00	847.57
556.00	851.97
557.00	851.31
558.00	854.05
559.00	860.19
560.00	859.78
561.00	864.92
562.00	879.45
563.00	882.54
564.00	891.03
565.00	900.80
566.00	910.33
567.00	915.73
568.00	929.07
569.00	936.34
570.00	951.53
571.00	966.04
572.00	981.60
573.00	991.49
574.00	1005.70
575.00	1021.72
576.00	1029.91
577.00	1043.88
578.00	1066.59
579.00	1070.81
580.00	1091.92
581.00	1097.71
582.00	1108.49
583.00	1119.79
584.00	1128.84
585.00	1130.09
586.00	1134.19
587.00	1142.71
588.00	1141.20
589.00	1147.61
590.00	1149.46
591.00	1144.42
592.00	1140.28
593.00	1136.92
594.00	1135.40
595.00	1134.83
596.00	1130.39
597.00	1128.11
598.00	1122.71
599.00	1117.05
600.00	1116.77
601.00	1115.71
602.00	1114.47
603.00	1113.03
604.00	1112.98
605.00	1110.49
606.00	1108.28
607.00	1106.37
608.00	1103.07
609.00	1110.23
610.00	1106.87
611.00	1109.53
612.00	1116.16
613.00	1108.12
614.00	1118.88
615.00	1114.02
616.00	1122.57
617.00	1120.73
618.00	1124.97
619.00	1128.91
620.00	1132.08
621.00	1136.91
622.00	1137.94
623.00	1140.02
624.00	1145.80
625.00	1150.87
626.00	1151.97
627.00	1158.59
628.00	1158.88
629.00	1163.99
630.00	1163.81
631.00	1166.48
632.00	1166.29
633.00	1166.69
634.00	1161.95
635.00	1162.63
636.00	1155.71
637.00	1152.31
638.00	1149.97
639.00	1142.99
640.00	1141.97
641.00	1128.52
642.00	1118.37
643.00	1107.38
644.00	1098.24
645.00	1089.86
646.00	1079.49
647.00	1063.98
648.00	1049.99
649.00	1038.16
650.00	1025.56
651.00	1016.16
652.00	1005.82
653.00	995.79
654.00	984.93
655.00	974.12
656.00	964.78
657.00	951.57
658.00	946.57
659.00	932.79
660.00	928.98
661.00	920.10
662.00	912.88
663.00	905.23
664.00	903.62
665.00	893.85
666.00	890.38
667.00	883.33
668.00	883.49
669.00	879.75
670.00	872.36
671.00	860.31
672.00	845.76
673.00	843.94
674.00	857.73
675.00	853.41
676.00	854.55
677.00	852.08
678.00	842.31
679.00	843.48
680.00	841.36
681.00	837.90
682.00	836.56
683.00	829.12
684.00	831.64
685.00	825.85
686.00	825.81
687.00	818.74
688.00	815.95
689.00	810.26
690.00	807.23
691.00	801.19
692.00	796.65
693.00	795.14
694.00	784.97
695.00	778.44
696.00	771.24
697.00	761.03
698.00	750.24
699.00	742.01
700.00	726.69
701.00	714.54
702.00	698.26
703.00	689.69
704.00	668.66
705.00	652.53
706.00	637.27
707.00	619.41
708.00	600.95
709.00	581.97
710.00	562.43
711.00	541.97
712.00	520.35
713.00	501.81
714.00	483.20
715.00	464.13
716.00	445.54
717.00	426.91
718.00	409.17
719.00	390.67
720.00	374.47
721.00	358.19
722.00	344.09
723.00	330.90
724.00	315.73
725.00	302.29
726.00	291.12
727.00	278.86
728.00	267.34
729.00	257.17
730.00	249.37
731.00	240.08
732.00	234.89
733.00	224.59
734.00	218.50
735.00	210.97
736.00	205.67
737.00	201.10
738.00	197.32
739.00	192.91
740.00	190.20
741.00	186.21
742.00	182.99
743.00	181.42
744.00	180.09
745.00	178.13
746.00	176.10
747.00	173.99
748.00	172.69
749.00	170.57
750.00	170.01
751.00	168.97
752.00	167.46
753.00	165.60
754.00	166.53
755.00	163.19
756.00	162.80
757.00	162.29
758.00	162.36
759.00	159.20
760.00	158.91
761.00	158.13
762.00	156.67
763.00	157.13
764.00	155.96
765.00	156.73
766.00	155.61
767.00	155.28
768.00	154.32
769.00	153.52
770.00	153.60
771.00	153.30
772.00	152.34
773.00	152.84
774.00	153.01
775.00	153.21
776.00	151.32
777.00	151.85
778.00	152.20
779.00	151.28
780.00	151.45
781.00	151.61
782.00	151.66
783.00	153.96
784.00	150.44
785.00	152.13
786.00	151.81
787.00	152.20
788.00	150.35
789.00	151.08
790.00	151.31
791.00	149.31
792.00	150.23
793.00	150.56
794.00	149.42
795.00	148.79
796.00	150.54
797.00	148.76
798.00	150.11
799.00	149.28
800.00	148.94
801.00	149.63
802.00	148.28
803.00	149.06
804.00	149.68
805.00	149.00
806.00	148.56
807.00	148.86
808.00	147.76
809.00	148.62
810.00	149.35
811.00	148.74
812.00	148.30
813.00	149.66
814.00	148.42
815.00	149.64
816.00	148.36
817.00	149.00
818.00	148.27
819.00	147.93
820.00	147.95
821.00	147.72
822.00	148.79
823.00	147.97
824.00	147.57
825.00	149.06
826.00	148.36
827.00	148.54
828.00	149.08
829.00	147.86
830.00	149.28
831.00	148.28
832.00	148.23
833.00	148.20
834.00	147.28
835.00	148.80
836.00	147.94
837.00	147.65
838.00	148.62
839.00	148.05
840.00	147.79
841.00	148.39
842.00	149.03
843.00	147.31
844.00	148.62
845.00	148.94
846.00	147.84
847.00	147.83
848.00	148.03
849.00	148.04
850.00	156.56
851.00	147.55
852.00	147.44
853.00	148.46
854.00	148.96
855.00	149.97
856.00	148.56
857.00	149.29
858.00	149.48
859.00	147.85
860.00	148.56
861.00	148.17
862.00	147.88
863.00	147.88
864.00	148.01
865.00	147.78
866.00	147.32
867.00	148.27
868.00	149.39
869.00	148.25
870.00	147.99
871.00	147.89
872.00	149.60
873.00	148.88
874.00	148.12
875.00	147.31
876.00	147.56
877.00	147.70
878.00	148.12
879.00	147.05
880.00	148.25
881.00	148.10
882.00	147.14
883.00	147.31
884.00	148.23
885.00	147.73
886.00	147.19
887.00	147.95
888.00	147.78
889.00	146.82
890.00	148.31
891.00	148.33
892.00	149.89
893.00	147.45
894.00	148.22
895.00	148.57
896.00	148.52
897.00	148.12
898.00	147.41
899.00	148.41
900.00	147.23
901.00	149.12
902.00	146.43
903.00	147.77
904.00	147.42
905.00	149.80
906.00	148.61
907.00	148.09
908.00	147.54
909.00	147.54
910.00	149.42
911.00	148.28
912.00	149.44
913.00	147.39
914.00	147.40
915.00	148.96
916.00	148.01
917.00	147.10
918.00	147.84
919.00	148.76
920.00	148.82
921.00	147.89
922.00	147.36
923.00	147.01
924.00	148.18
925.00	151.40
926.00	149.26
927.00	147.01
928.00	149.36
929.00	146.58
930.00	147.57
931.00	149.05
932.00	147.69
933.00	150.01
934.00	147.85
935.00	147.51
936.00	147.54
937.00	148.73
938.00	149.37
939.00	147.91
940.00	147.99
941.00	148.92
942.00	149.95
943.00	148.14
944.00	147.92
945.00	147.72
946.00	148.12
947.00	147.40
948.00	147.63
949.00	147.07
950.00	148.42
951.00	148.17
952.00	148.49
953.00	147.59
954.00	147.96
955.00	147.38
956.00	149.14
957.00	148.34
958.00	148.03
959.00	147.90
960.00	149.73
961.00	148.48
962.00	149.38
963.00	147.66
964.00	147.74
965.00	148.14
966.00	148.04
967.00	148.27
968.00	149.99
969.00	150.24
970.00	147.76
971.00	146.98
972.00	149.86
973.00	148.34
974.00	148.41
975.00	147.45
976.00	148.13
977.00	148.23
978.00	147.61
979.00	148.37
980.00	147.97
981.00	147.64
982.00	148.53
983.00	146.85
984.00	146.29
985.00	148.58
986.00	147.78
987.00	148.25
988.00	148.73
989.00	147.76
990.00	147.83
991.00	147.90
992.00	148.36
993.00	148.44
994.00	147.35
995.00	148.15
996.00	149.39
997.00	148.88
998.00	148.56
999.00	148.62
1000.00	147.38
>>>>>End Processed Spectral Data<<<<<
