SpectraSuite Data File
++++++++++++++++++++++++++++++++++++
Date: Mon Jun 02 11:58:03 PDT 2025
User: Stephen Warren
Dark Spectrum Present: No
Reference Spectrum Present: No
Number of Sampled Component Spectra: 1
Spectrometers: USB2G24357
Integration Time (usec): 48000 (USB2G24357)
Spectra Averaged: 200 (USB2G24357)
Boxcar Smoothing: 0 (USB2G24357)
Correct for Electrical Dark: No (USB2G24357)
Strobe/Lamp Enabled: No (USB2G24357)
Correct for Detector Non-linearity: No (USB2G24357)
Correct for Stray Light: No (USB2G24357)
Number of Pixels in Processed Spectrum: 651
>>>>>Begin Processed Spectral Data<<<<<
350.00	146.02
351.00	146.24
352.00	147.59
353.00	147.57
354.00	147.56
355.00	147.36
356.00	146.92
357.00	146.78
358.00	148.69
359.00	147.87
360.00	146.97
361.00	148.21
362.00	147.95
363.00	147.54
364.00	147.52
365.00	147.89
366.00	148.09
367.00	148.15
368.00	148.57
369.00	148.70
370.00	148.22
371.00	148.87
372.00	148.60
373.00	149.70
374.00	148.18
375.00	148.08
376.00	147.37
377.00	149.22
378.00	149.42
379.00	149.09
380.00	148.42
381.00	149.34
382.00	148.67
383.00	148.13
384.00	148.85
385.00	148.56
386.00	148.82
387.00	148.72
388.00	148.70
389.00	149.45
390.00	149.02
391.00	149.60
392.00	150.40
393.00	151.30
394.00	150.46
395.00	153.90
396.00	151.63
397.00	152.39
398.00	153.34
399.00	153.63
400.00	154.54
401.00	154.65
402.00	155.73
403.00	156.35
404.00	156.22
405.00	157.37
406.00	157.73
407.00	159.03
408.00	159.50
409.00	160.66
410.00	160.95
411.00	161.89
412.00	163.95
413.00	166.34
414.00	167.52
415.00	168.75
416.00	171.35
417.00	172.12
418.00	173.86
419.00	177.65
420.00	178.40
421.00	179.52
422.00	181.11
423.00	180.96
424.00	182.87
425.00	185.16
426.00	186.39
427.00	189.70
428.00	189.90
429.00	192.25
430.00	194.98
431.00	196.84
432.00	201.66
433.00	205.10
434.00	209.51
435.00	213.27
436.00	216.70
437.00	221.55
438.00	226.98
439.00	230.50
440.00	237.44
441.00	241.19
442.00	243.90
443.00	248.72
444.00	252.09
445.00	252.09
446.00	254.61
447.00	257.95
448.00	259.81
449.00	260.56
450.00	261.43
451.00	261.94
452.00	262.13
453.00	267.70
454.00	270.33
455.00	274.21
456.00	277.84
457.00	283.49
458.00	287.54
459.00	292.63
460.00	298.17
461.00	304.45
462.00	313.20
463.00	321.69
464.00	326.27
465.00	333.90
466.00	341.55
467.00	350.13
468.00	356.80
469.00	361.93
470.00	369.69
471.00	373.05
472.00	373.54
473.00	379.27
474.00	383.59
475.00	390.76
476.00	397.12
477.00	401.07
478.00	408.79
479.00	417.06
480.00	424.77
481.00	430.72
482.00	438.98
483.00	449.46
484.00	459.14
485.00	471.45
486.00	480.25
487.00	493.29
488.00	505.25
489.00	517.88
490.00	532.29
491.00	544.88
492.00	560.47
493.00	574.28
494.00	585.86
495.00	597.29
496.00	610.59
497.00	621.56
498.00	631.12
499.00	635.33
500.00	643.12
501.00	646.40
502.00	649.49
503.00	650.42
504.00	652.34
505.00	650.73
506.00	651.04
507.00	652.18
508.00	651.75
509.00	650.39
510.00	648.92
511.00	651.32
512.00	650.15
513.00	649.58
514.00	655.59
515.00	658.42
516.00	661.11
517.00	663.32
518.00	667.35
519.00	676.20
520.00	675.59
521.00	685.42
522.00	689.96
523.00	696.37
524.00	700.39
525.00	708.99
526.00	717.56
527.00	724.88
528.00	732.47
529.00	747.06
530.00	755.82
531.00	764.66
532.00	780.06
533.00	795.68
534.00	807.98
535.00	820.51
536.00	835.92
537.00	842.47
538.00	848.07
539.00	860.20
540.00	863.63
541.00	867.14
542.00	868.91
543.00	869.96
544.00	871.36
545.00	872.60
546.00	869.08
547.00	875.34
548.00	872.46
549.00	872.06
550.00	872.74
551.00	871.67
552.00	867.26
553.00	873.35
554.00	877.92
555.00	882.45
556.00	886.68
557.00	886.45
558.00	890.99
559.00	894.75
560.00	894.02
561.00	900.52
562.00	913.76
563.00	918.12
564.00	927.81
565.00	936.19
566.00	946.85
567.00	953.04
568.00	966.50
569.00	974.41
570.00	991.27
571.00	1005.85
572.00	1021.97
573.00	1031.17
574.00	1045.62
575.00	1061.78
576.00	1072.13
577.00	1086.14
578.00	1107.60
579.00	1113.69
580.00	1133.89
581.00	1142.04
582.00	1152.86
583.00	1163.02
584.00	1174.54
585.00	1174.57
586.00	1178.44
587.00	1187.88
588.00	1187.81
589.00	1191.30
590.00	1193.57
591.00	1189.38
592.00	1184.10
593.00	1181.18
594.00	1180.09
595.00	1177.06
596.00	1173.77
597.00	1171.71
598.00	1166.13
599.00	1158.65
600.00	1159.10
601.00	1158.31
602.00	1156.48
603.00	1156.54
604.00	1156.11
605.00	1154.77
606.00	1150.01
607.00	1147.82
608.00	1146.02
609.00	1152.06
610.00	1147.92
611.00	1150.94
612.00	1159.45
613.00	1149.22
614.00	1160.31
615.00	1154.80
616.00	1163.99
617.00	1162.57
618.00	1168.01
619.00	1169.22
620.00	1172.89
621.00	1180.55
622.00	1180.11
623.00	1182.40
624.00	1186.75
625.00	1192.06
626.00	1194.94
627.00	1201.22
628.00	1202.56
629.00	1206.36
630.00	1206.50
631.00	1209.49
632.00	1208.40
633.00	1209.83
634.00	1204.44
635.00	1204.31
636.00	1197.55
637.00	1195.74
638.00	1192.57
639.00	1184.50
640.00	1182.24
641.00	1168.11
642.00	1159.45
643.00	1148.72
644.00	1137.39
645.00	1128.65
646.00	1119.07
647.00	1101.93
648.00	1087.33
649.00	1074.23
650.00	1061.69
651.00	1050.37
652.00	1040.76
653.00	1031.06
654.00	1019.92
655.00	1008.30
656.00	998.71
657.00	985.01
658.00	978.57
659.00	965.38
660.00	962.07
661.00	951.79
662.00	944.32
663.00	936.79
664.00	934.52
665.00	923.99
666.00	920.52
667.00	913.09
668.00	912.64
669.00	907.94
670.00	901.06
671.00	887.96
672.00	874.32
673.00	871.49
674.00	885.59
675.00	883.25
676.00	883.50
677.00	880.09
678.00	871.25
679.00	871.42
680.00	869.73
681.00	866.49
682.00	863.02
683.00	854.84
684.00	857.88
685.00	853.68
686.00	850.78
687.00	845.34
688.00	841.91
689.00	835.97
690.00	833.87
691.00	826.86
692.00	823.10
693.00	820.07
694.00	809.94
695.00	803.26
696.00	794.47
697.00	785.67
698.00	773.57
699.00	764.33
700.00	749.02
701.00	736.53
702.00	719.02
703.00	711.34
704.00	689.19
705.00	672.25
706.00	655.23
707.00	638.02
708.00	618.32
709.00	597.67
710.00	577.51
711.00	556.64
712.00	534.77
713.00	515.03
714.00	495.87
715.00	474.72
716.00	456.66
717.00	437.95
718.00	418.65
719.00	400.39
720.00	383.17
721.00	366.30
722.00	352.08
723.00	337.55
724.00	322.35
725.00	308.04
726.00	296.75
727.00	284.75
728.00	272.21
729.00	261.19
730.00	253.14
731.00	243.04
732.00	237.14
733.00	227.79
734.00	220.93
735.00	213.83
736.00	208.01
737.00	202.75
738.00	199.76
739.00	194.76
740.00	191.29
741.00	187.81
742.00	184.97
743.00	182.72
744.00	181.47
745.00	179.19
746.00	177.59
747.00	174.54
748.00	173.70
749.00	171.59
750.00	171.08
751.00	169.85
752.00	168.23
753.00	166.65
754.00	167.21
755.00	164.13
756.00	163.02
757.00	162.61
758.00	162.98
759.00	159.90
760.00	159.20
761.00	158.18
762.00	157.00
763.00	157.89
764.00	155.97
765.00	156.98
766.00	155.89
767.00	155.04
768.00	154.96
769.00	153.77
770.00	153.82
771.00	153.58
772.00	152.21
773.00	153.38
774.00	152.92
775.00	153.63
776.00	151.39
777.00	152.24
778.00	152.40
779.00	151.22
780.00	152.19
781.00	151.89
782.00	151.81
783.00	153.46
784.00	150.66
785.00	152.54
786.00	151.90
787.00	152.09
788.00	150.24
789.00	151.44
790.00	152.07
791.00	149.67
792.00	150.44
793.00	150.40
794.00	150.00
795.00	149.01
796.00	150.32
797.00	148.53
798.00	149.96
799.00	149.27
800.00	148.66
801.00	149.51
802.00	148.19
803.00	149.24
804.00	149.93
805.00	148.93
806.00	148.89
807.00	148.86
808.00	147.81
809.00	148.64
810.00	149.38
811.00	148.79
812.00	148.58
813.00	149.35
814.00	148.60
815.00	149.78
816.00	148.50
817.00	149.48
818.00	148.44
819.00	148.24
820.00	148.20
821.00	147.77
822.00	148.91
823.00	148.28
824.00	147.79
825.00	149.33
826.00	148.39
827.00	148.64
828.00	149.17
829.00	148.36
830.00	149.48
831.00	148.53
832.00	148.34
833.00	148.14
834.00	147.70
835.00	148.78
836.00	147.96
837.00	147.78
838.00	148.37
839.00	147.87
840.00	147.85
841.00	148.46
842.00	148.86
843.00	147.33
844.00	148.39
845.00	149.05
846.00	147.91
847.00	147.56
848.00	147.88
849.00	148.04
850.00	156.34
851.00	147.73
852.00	147.54
853.00	148.63
854.00	148.62
855.00	150.01
856.00	148.85
857.00	149.11
858.00	149.68
859.00	148.29
860.00	148.66
861.00	148.41
862.00	147.71
863.00	147.90
864.00	148.23
865.00	148.24
866.00	147.30
867.00	148.27
868.00	149.68
869.00	148.30
870.00	148.58
871.00	147.57
872.00	149.22
873.00	148.98
874.00	147.93
875.00	147.72
876.00	147.78
877.00	148.00
878.00	148.32
879.00	146.85
880.00	148.77
881.00	148.28
882.00	146.98
883.00	147.42
884.00	148.36
885.00	147.41
886.00	147.22
887.00	147.94
888.00	147.94
889.00	147.23
890.00	148.22
891.00	148.07
892.00	149.87
893.00	147.41
894.00	147.57
895.00	148.49
896.00	148.74
897.00	148.24
898.00	147.21
899.00	148.40
900.00	147.37
901.00	149.22
902.00	146.57
903.00	148.19
904.00	146.95
905.00	150.42
906.00	148.60
907.00	148.02
908.00	147.47
909.00	147.54
910.00	149.17
911.00	148.44
912.00	149.20
913.00	147.36
914.00	147.65
915.00	148.87
916.00	148.17
917.00	147.22
918.00	148.14
919.00	149.09
920.00	148.47
921.00	147.78
922.00	147.45
923.00	147.13
924.00	148.27
925.00	151.14
926.00	149.11
927.00	147.12
928.00	149.27
929.00	146.88
930.00	147.68
931.00	149.24
932.00	148.18
933.00	150.55
934.00	147.68
935.00	147.38
936.00	147.37
937.00	148.88
938.00	149.00
939.00	147.87
940.00	148.05
941.00	148.34
942.00	149.83
943.00	148.50
944.00	148.13
945.00	148.23
946.00	147.85
947.00	147.40
948.00	147.85
949.00	147.44
950.00	148.27
951.00	148.12
952.00	148.19
953.00	147.81
954.00	147.92
955.00	147.58
956.00	149.05
957.00	148.26
958.00	147.87
959.00	147.95
960.00	149.53
961.00	148.28
962.00	149.43
963.00	147.72
964.00	148.00
965.00	148.36
966.00	148.75
967.00	147.90
968.00	150.01
969.00	149.92
970.00	148.15
971.00	147.08
972.00	149.82
973.00	148.04
974.00	148.60
975.00	147.29
976.00	148.63
977.00	147.96
978.00	147.58
979.00	148.17
980.00	147.98
981.00	147.68
982.00	148.49
983.00	146.83
984.00	145.53
985.00	148.58
986.00	147.87
987.00	148.34
988.00	148.44
989.00	148.22
990.00	148.02
991.00	148.28
992.00	148.43
993.00	148.36
994.00	147.42
995.00	148.48
996.00	149.54
997.00	148.91
998.00	148.52
999.00	148.92
1000.00	147.40
>>>>>End Processed Spectral Data<<<<<
