SpectraSuite Data File
++++++++++++++++++++++++++++++++++++
Date: Wed Jun 24 10:02:43 PDT 2026
User: Stephen Warren
Dark Spectrum Present: No
Reference Spectrum Present: No
Number of Sampled Component Spectra: 1
Spectrometers: USB2G24357
Integration Time (usec): 48000 (USB2G24357)
Spectra Averaged: 200 (USB2G24357)
Boxcar Smoothing: 0 (USB2G24357)
Correct for Electrical Dark: No (USB2G24357)
Strobe/Lamp Enabled: No (USB2G24357)
Correct for Detector Non-linearity: No (USB2G24357)
Correct for Stray Light: No (USB2G24357)
Number of Pixels in Processed Spectrum: 651
>>>>>Begin Processed Spectral Data<<<<<
350.00	152.43
351.00	153.16
352.00	153.96
353.00	153.98
354.00	153.98
355.00	153.98
356.00	153.27
357.00	153.15
358.00	155.19
359.00	153.55
360.00	153.31
361.00	154.41
362.00	154.12
363.00	153.44
364.00	154.11
365.00	153.78
366.00	154.45
367.00	155.28
368.00	154.97
369.00	155.02
370.00	154.68
371.00	154.68
372.00	154.89
373.00	155.96
374.00	154.74
375.00	154.48
376.00	153.52
377.00	155.40
378.00	155.91
379.00	154.98
380.00	154.13
381.00	155.47
382.00	154.71
383.00	154.13
384.00	154.34
385.00	154.70
386.00	155.18
387.00	154.87
388.00	154.68
389.00	155.26
390.00	154.48
391.00	154.59
392.00	155.87
393.00	156.49
394.00	155.77
395.00	158.69
396.00	155.48
397.00	155.55
398.00	156.15
399.00	155.90
400.00	155.90
401.00	156.01
402.00	156.73
403.00	157.06
404.00	156.00
405.00	156.92
406.00	156.99
407.00	157.40
408.00	157.07
409.00	158.63
410.00	157.50
411.00	157.07
412.00	158.62
413.00	159.78
414.00	159.96
415.00	160.24
416.00	161.23
417.00	160.07
418.00	160.88
419.00	163.21
420.00	162.89
421.00	162.92
422.00	162.11
423.00	162.33
424.00	163.16
425.00	164.00
426.00	163.34
427.00	164.73
428.00	164.35
429.00	164.37
430.00	165.00
431.00	165.30
432.00	166.21
433.00	167.18
434.00	168.99
435.00	168.83
436.00	169.17
437.00	170.78
438.00	172.16
439.00	172.88
440.00	174.42
441.00	174.08
442.00	174.48
443.00	176.84
444.00	176.45
445.00	176.52
446.00	176.57
447.00	177.27
448.00	177.64
449.00	179.65
450.00	179.36
451.00	178.25
452.00	178.21
453.00	179.54
454.00	180.33
455.00	181.49
456.00	182.36
457.00	184.26
458.00	184.97
459.00	185.62
460.00	186.72
461.00	188.37
462.00	190.99
463.00	191.71
464.00	193.85
465.00	194.80
466.00	195.66
467.00	199.04
468.00	199.34
469.00	200.45
470.00	202.20
471.00	202.14
472.00	202.61
473.00	203.79
474.00	204.71
475.00	206.44
476.00	206.88
477.00	208.01
478.00	209.64
479.00	212.24
480.00	213.67
481.00	213.50
482.00	216.13
483.00	217.52
484.00	220.39
485.00	224.10
486.00	225.55
487.00	227.55
488.00	228.87
489.00	232.82
490.00	235.96
491.00	238.45
492.00	242.74
493.00	245.24
494.00	247.82
495.00	249.18
496.00	252.35
497.00	255.58
498.00	258.73
499.00	257.55
500.00	259.39
501.00	258.96
502.00	260.18
503.00	261.17
504.00	261.76
505.00	260.51
506.00	260.18
507.00	260.76
508.00	263.23
509.00	260.63
510.00	260.45
511.00	260.00
512.00	259.86
513.00	260.00
514.00	260.91
515.00	261.76
516.00	262.07
517.00	262.13
518.00	261.92
519.00	266.36
520.00	265.58
521.00	266.21
522.00	267.57
523.00	268.82
524.00	268.36
525.00	269.55
526.00	271.60
527.00	273.12
528.00	274.91
529.00	278.68
530.00	278.04
531.00	279.48
532.00	283.36
533.00	286.16
534.00	288.23
535.00	291.95
536.00	292.69
537.00	294.40
538.00	294.83
539.00	298.46
540.00	298.56
541.00	297.99
542.00	297.73
543.00	298.61
544.00	297.49
545.00	298.44
546.00	297.80
547.00	302.07
548.00	298.49
549.00	297.07
550.00	297.65
551.00	297.90
552.00	294.83
553.00	296.34
554.00	296.76
555.00	297.59
556.00	297.58
557.00	296.50
558.00	297.13
559.00	299.03
560.00	298.74
561.00	296.43
562.00	300.08
563.00	301.07
564.00	301.14
565.00	303.98
566.00	303.93
567.00	304.66
568.00	306.11
569.00	306.90
570.00	310.41
571.00	311.48
572.00	314.43
573.00	316.18
574.00	316.80
575.00	319.77
576.00	321.01
577.00	323.36
578.00	330.19
579.00	328.78
580.00	332.71
581.00	333.30
582.00	334.83
583.00	336.46
584.00	339.40
585.00	339.19
586.00	339.75
587.00	340.54
588.00	339.63
589.00	340.74
590.00	340.81
591.00	340.01
592.00	339.07
593.00	337.59
594.00	337.38
595.00	335.98
596.00	334.19
597.00	334.78
598.00	334.66
599.00	333.18
600.00	331.35
601.00	331.30
602.00	331.13
603.00	331.56
604.00	330.74
605.00	331.53
606.00	329.78
607.00	328.17
608.00	328.98
609.00	328.98
610.00	327.75
611.00	329.24
612.00	330.19
613.00	327.87
614.00	330.45
615.00	329.21
616.00	331.83
617.00	329.67
618.00	332.76
619.00	332.42
620.00	332.09
621.00	334.43
622.00	334.47
623.00	333.96
624.00	335.32
625.00	337.54
626.00	338.42
627.00	341.25
628.00	339.52
629.00	339.76
630.00	339.73
631.00	342.36
632.00	341.81
633.00	340.94
634.00	342.12
635.00	342.77
636.00	340.88
637.00	342.24
638.00	342.67
639.00	340.81
640.00	340.88
641.00	339.62
642.00	337.92
643.00	336.43
644.00	335.46
645.00	335.08
646.00	333.07
647.00	330.63
648.00	328.09
649.00	325.78
650.00	323.09
651.00	321.44
652.00	320.21
653.00	320.11
654.00	317.87
655.00	315.70
656.00	313.69
657.00	311.10
658.00	312.30
659.00	306.84
660.00	307.30
661.00	304.37
662.00	302.78
663.00	301.29
664.00	300.70
665.00	298.81
666.00	298.15
667.00	295.13
668.00	297.68
669.00	294.33
670.00	292.25
671.00	289.70
672.00	286.75
673.00	285.03
674.00	288.03
675.00	287.05
676.00	286.68
677.00	284.18
678.00	281.53
679.00	280.66
680.00	279.54
681.00	280.55
682.00	279.37
683.00	275.56
684.00	275.98
685.00	274.04
686.00	274.13
687.00	272.28
688.00	270.01
689.00	268.37
690.00	268.36
691.00	265.52
692.00	264.80
693.00	265.85
694.00	262.85
695.00	260.88
696.00	260.10
697.00	258.20
698.00	255.83
699.00	253.80
700.00	252.56
701.00	249.77
702.00	246.17
703.00	250.35
704.00	241.77
705.00	239.35
706.00	238.36
707.00	233.29
708.00	230.65
709.00	227.77
710.00	224.72
711.00	221.67
712.00	217.06
713.00	214.74
714.00	210.87
715.00	208.55
716.00	206.19
717.00	203.07
718.00	199.93
719.00	196.92
720.00	193.77
721.00	191.39
722.00	189.89
723.00	187.73
724.00	184.70
725.00	182.25
726.00	180.37
727.00	178.31
728.00	176.12
729.00	173.23
730.00	173.26
731.00	170.53
732.00	171.57
733.00	167.73
734.00	167.38
735.00	165.20
736.00	164.00
737.00	162.62
738.00	162.85
739.00	161.08
740.00	161.60
741.00	159.37
742.00	159.41
743.00	159.38
744.00	159.75
745.00	158.75
746.00	158.67
747.00	157.68
748.00	157.79
749.00	157.10
750.00	157.31
751.00	157.23
752.00	156.93
753.00	156.38
754.00	157.84
755.00	155.85
756.00	155.62
757.00	156.28
758.00	157.50
759.00	155.11
760.00	155.36
761.00	155.44
762.00	154.49
763.00	156.23
764.00	154.70
765.00	156.23
766.00	155.53
767.00	155.73
768.00	155.39
769.00	154.63
770.00	155.16
771.00	154.97
772.00	153.95
773.00	155.30
774.00	155.09
775.00	155.51
776.00	154.13
777.00	154.10
778.00	155.20
779.00	154.03
780.00	154.87
781.00	154.55
782.00	155.11
783.00	157.61
784.00	154.16
785.00	156.18
786.00	155.61
787.00	155.79
788.00	153.72
789.00	155.14
790.00	156.16
791.00	153.74
792.00	154.68
793.00	155.32
794.00	154.37
795.00	153.68
796.00	155.69
797.00	153.80
798.00	155.19
799.00	154.15
800.00	154.41
801.00	154.92
802.00	153.29
803.00	154.58
804.00	155.30
805.00	154.61
806.00	154.30
807.00	154.53
808.00	153.19
809.00	154.12
810.00	155.29
811.00	154.61
812.00	154.51
813.00	155.63
814.00	154.59
815.00	155.74
816.00	154.08
817.00	155.31
818.00	154.21
819.00	154.46
820.00	153.84
821.00	153.95
822.00	155.23
823.00	154.32
824.00	153.76
825.00	155.07
826.00	154.76
827.00	154.49
828.00	155.49
829.00	154.10
830.00	155.86
831.00	154.89
832.00	154.76
833.00	154.30
834.00	153.34
835.00	155.14
836.00	154.16
837.00	154.03
838.00	155.10
839.00	154.06
840.00	153.79
841.00	154.55
842.00	154.93
843.00	153.07
844.00	154.78
845.00	155.28
846.00	153.87
847.00	153.62
848.00	153.82
849.00	153.92
850.00	163.74
851.00	153.45
852.00	153.35
853.00	154.51
854.00	155.13
855.00	156.20
856.00	154.68
857.00	155.71
858.00	155.87
859.00	154.10
860.00	154.94
861.00	154.58
862.00	153.92
863.00	154.27
864.00	154.19
865.00	154.29
866.00	153.70
867.00	154.72
868.00	156.33
869.00	154.70
870.00	155.09
871.00	154.20
872.00	156.14
873.00	155.62
874.00	154.70
875.00	154.06
876.00	153.96
877.00	154.38
878.00	154.64
879.00	153.45
880.00	155.16
881.00	155.02
882.00	153.08
883.00	154.28
884.00	154.93
885.00	153.96
886.00	153.52
887.00	154.52
888.00	154.42
889.00	153.02
890.00	154.65
891.00	154.30
892.00	156.43
893.00	154.27
894.00	154.39
895.00	154.91
896.00	155.44
897.00	155.15
898.00	153.97
899.00	155.22
900.00	154.12
901.00	156.28
902.00	153.38
903.00	154.03
904.00	153.47
905.00	157.23
906.00	156.31
907.00	154.84
908.00	154.35
909.00	154.12
910.00	156.42
911.00	155.68
912.00	156.92
913.00	153.48
914.00	154.58
915.00	155.40
916.00	154.83
917.00	154.12
918.00	154.71
919.00	156.25
920.00	154.91
921.00	154.82
922.00	153.95
923.00	153.87
924.00	154.96
925.00	158.75
926.00	156.07
927.00	153.52
928.00	156.27
929.00	153.42
930.00	154.32
931.00	156.14
932.00	154.45
933.00	157.46
934.00	154.30
935.00	154.16
936.00	154.11
937.00	155.72
938.00	156.27
939.00	154.86
940.00	154.83
941.00	155.51
942.00	157.22
943.00	155.25
944.00	155.34
945.00	154.64
946.00	155.43
947.00	154.17
948.00	154.20
949.00	153.97
950.00	155.31
951.00	154.60
952.00	154.94
953.00	154.28
954.00	154.67
955.00	154.74
956.00	156.15
957.00	154.71
958.00	154.56
959.00	155.24
960.00	156.59
961.00	154.95
962.00	156.42
963.00	154.29
964.00	154.49
965.00	155.34
966.00	155.21
967.00	155.31
968.00	156.75
969.00	157.35
970.00	154.92
971.00	153.76
972.00	157.42
973.00	155.27
974.00	155.44
975.00	154.55
976.00	155.56
977.00	155.12
978.00	154.33
979.00	155.43
980.00	155.04
981.00	154.56
982.00	155.54
983.00	153.59
984.00	150.40
985.00	155.01
986.00	155.17
987.00	155.13
988.00	155.57
989.00	155.20
990.00	154.63
991.00	154.98
992.00	155.31
993.00	155.33
994.00	154.13
995.00	155.29
996.00	156.80
997.00	158.02
998.00	155.38
999.00	156.21
1000.00	154.28
>>>>>End Processed Spectral Data<<<<<
