SpectraSuite Data File
++++++++++++++++++++++++++++++++++++
Date: Wed Jun 24 10:23:14 PDT 2026
User: Stephen Warren
Dark Spectrum Present: No
Reference Spectrum Present: No
Number of Sampled Component Spectra: 1
Spectrometers: USB2G24357
Integration Time (usec): 48000 (USB2G24357)
Spectra Averaged: 200 (USB2G24357)
Boxcar Smoothing: 0 (USB2G24357)
Correct for Electrical Dark: No (USB2G24357)
Strobe/Lamp Enabled: No (USB2G24357)
Correct for Detector Non-linearity: No (USB2G24357)
Correct for Stray Light: No (USB2G24357)
Number of Pixels in Processed Spectrum: 651
>>>>>Begin Processed Spectral Data<<<<<
350.00	148.88
351.00	149.17
352.00	150.18
353.00	150.51
354.00	150.65
355.00	150.59
356.00	149.71
357.00	149.77
358.00	152.03
359.00	150.25
360.00	149.77
361.00	150.96
362.00	150.48
363.00	149.86
364.00	150.78
365.00	150.00
366.00	151.12
367.00	151.83
368.00	151.47
369.00	151.63
370.00	151.07
371.00	150.97
372.00	151.28
373.00	152.66
374.00	150.90
375.00	150.94
376.00	150.07
377.00	151.57
378.00	151.71
379.00	151.57
380.00	150.48
381.00	152.01
382.00	151.10
383.00	150.95
384.00	150.87
385.00	151.27
386.00	151.34
387.00	151.24
388.00	150.63
389.00	151.72
390.00	150.96
391.00	151.03
392.00	152.01
393.00	152.82
394.00	151.78
395.00	155.01
396.00	151.30
397.00	151.34
398.00	151.80
399.00	151.33
400.00	151.42
401.00	151.08
402.00	151.47
403.00	151.99
404.00	150.96
405.00	151.48
406.00	152.03
407.00	152.41
408.00	151.64
409.00	152.79
410.00	151.68
411.00	151.30
412.00	152.41
413.00	152.95
414.00	152.71
415.00	152.43
416.00	153.01
417.00	151.84
418.00	151.97
419.00	154.40
420.00	153.08
421.00	153.85
422.00	152.55
423.00	152.00
424.00	152.10
425.00	152.88
426.00	152.63
427.00	153.77
428.00	152.49
429.00	152.85
430.00	152.56
431.00	152.49
432.00	152.65
433.00	153.35
434.00	154.21
435.00	153.78
436.00	153.03
437.00	153.96
438.00	154.23
439.00	154.25
440.00	153.92
441.00	153.45
442.00	153.91
443.00	155.01
444.00	153.92
445.00	154.07
446.00	154.17
447.00	153.75
448.00	154.31
449.00	156.46
450.00	155.56
451.00	154.12
452.00	154.49
453.00	154.12
454.00	154.68
455.00	155.26
456.00	155.02
457.00	156.25
458.00	155.69
459.00	156.03
460.00	155.25
461.00	155.80
462.00	156.76
463.00	156.29
464.00	157.78
465.00	156.78
466.00	156.79
467.00	158.86
468.00	158.25
469.00	158.12
470.00	158.12
471.00	157.81
472.00	157.91
473.00	158.79
474.00	158.50
475.00	159.05
476.00	158.77
477.00	159.27
478.00	159.48
479.00	160.27
480.00	160.34
481.00	159.44
482.00	160.36
483.00	160.24
484.00	161.45
485.00	162.39
486.00	162.10
487.00	162.41
488.00	161.37
489.00	162.95
490.00	164.28
491.00	163.42
492.00	165.41
493.00	165.40
494.00	166.03
495.00	165.59
496.00	166.56
497.00	167.78
498.00	168.80
499.00	167.44
500.00	168.25
501.00	167.23
502.00	167.67
503.00	168.27
504.00	169.43
505.00	168.12
506.00	168.70
507.00	168.58
508.00	171.47
509.00	168.78
510.00	169.53
511.00	168.15
512.00	168.87
513.00	168.82
514.00	169.01
515.00	169.53
516.00	169.24
517.00	169.12
518.00	168.18
519.00	170.92
520.00	170.43
521.00	169.35
522.00	170.24
523.00	170.96
524.00	170.58
525.00	170.56
526.00	171.12
527.00	171.59
528.00	172.44
529.00	173.70
530.00	171.94
531.00	172.96
532.00	173.77
533.00	174.81
534.00	175.21
535.00	176.96
536.00	175.29
537.00	176.44
538.00	176.18
539.00	177.91
540.00	177.50
541.00	176.48
542.00	177.11
543.00	177.36
544.00	176.10
545.00	177.54
546.00	177.94
547.00	181.85
548.00	178.90
549.00	177.51
550.00	178.57
551.00	178.94
552.00	177.15
553.00	177.62
554.00	177.99
555.00	178.99
556.00	179.21
557.00	178.23
558.00	178.56
559.00	180.43
560.00	181.00
561.00	178.15
562.00	180.01
563.00	180.57
564.00	180.20
565.00	181.98
566.00	180.52
567.00	182.04
568.00	181.78
569.00	182.30
570.00	183.56
571.00	182.98
572.00	183.73
573.00	183.56
574.00	184.41
575.00	185.07
576.00	184.81
577.00	184.81
578.00	188.67
579.00	187.47
580.00	188.28
581.00	188.27
582.00	188.26
583.00	189.01
584.00	190.88
585.00	190.13
586.00	190.65
587.00	190.51
588.00	190.28
589.00	191.22
590.00	191.18
591.00	191.08
592.00	191.57
593.00	189.76
594.00	191.27
595.00	190.05
596.00	189.29
597.00	190.77
598.00	191.09
599.00	190.61
600.00	189.73
601.00	189.46
602.00	190.60
603.00	190.51
604.00	190.59
605.00	191.54
606.00	190.97
607.00	189.18
608.00	190.96
609.00	190.65
610.00	189.63
611.00	190.75
612.00	191.06
613.00	189.78
614.00	190.29
615.00	190.01
616.00	191.74
617.00	190.10
618.00	191.86
619.00	191.48
620.00	190.91
621.00	192.08
622.00	191.65
623.00	191.08
624.00	191.93
625.00	193.20
626.00	192.95
627.00	195.19
628.00	192.83
629.00	192.75
630.00	192.95
631.00	193.85
632.00	193.91
633.00	192.96
634.00	193.61
635.00	194.62
636.00	193.28
637.00	194.67
638.00	194.87
639.00	193.58
640.00	193.23
641.00	194.00
642.00	192.90
643.00	193.29
644.00	192.97
645.00	193.13
646.00	192.80
647.00	192.63
648.00	190.86
649.00	190.79
650.00	190.12
651.00	189.82
652.00	189.24
653.00	189.68
654.00	189.45
655.00	189.20
656.00	188.21
657.00	188.04
658.00	189.76
659.00	186.39
660.00	187.33
661.00	185.95
662.00	185.96
663.00	185.16
664.00	186.40
665.00	185.97
666.00	185.32
667.00	183.83
668.00	186.93
669.00	183.96
670.00	183.78
671.00	183.29
672.00	182.71
673.00	181.96
674.00	183.59
675.00	183.58
676.00	183.43
677.00	182.34
678.00	181.04
679.00	181.39
680.00	180.61
681.00	182.72
682.00	182.40
683.00	180.31
684.00	180.24
685.00	179.58
686.00	181.06
687.00	179.44
688.00	178.70
689.00	177.75
690.00	179.00
691.00	177.73
692.00	177.37
693.00	178.42
694.00	176.88
695.00	176.49
696.00	177.21
697.00	176.62
698.00	175.75
699.00	175.02
700.00	174.55
701.00	174.39
702.00	173.23
703.00	175.02
704.00	172.22
705.00	171.81
706.00	172.67
707.00	169.80
708.00	169.57
709.00	169.39
710.00	168.18
711.00	167.72
712.00	166.08
713.00	165.75
714.00	164.57
715.00	164.12
716.00	164.45
717.00	163.41
718.00	162.97
719.00	160.86
720.00	160.40
721.00	159.88
722.00	160.54
723.00	160.06
724.00	158.69
725.00	157.81
726.00	157.65
727.00	156.91
728.00	156.27
729.00	155.23
730.00	156.16
731.00	154.83
732.00	157.04
733.00	154.36
734.00	154.63
735.00	153.68
736.00	153.61
737.00	152.60
738.00	153.60
739.00	152.19
740.00	153.48
741.00	151.63
742.00	151.75
743.00	152.18
744.00	152.75
745.00	152.55
746.00	152.51
747.00	151.42
748.00	151.92
749.00	151.09
750.00	151.87
751.00	151.85
752.00	151.92
753.00	151.16
754.00	152.78
755.00	150.64
756.00	150.81
757.00	151.53
758.00	153.22
759.00	150.81
760.00	150.69
761.00	151.10
762.00	149.92
763.00	152.12
764.00	150.70
765.00	152.68
766.00	151.36
767.00	151.40
768.00	151.05
769.00	150.41
770.00	151.02
771.00	151.00
772.00	149.92
773.00	151.23
774.00	151.31
775.00	151.63
776.00	149.86
777.00	150.54
778.00	151.20
779.00	150.02
780.00	150.56
781.00	150.78
782.00	151.32
783.00	151.10
784.00	150.43
785.00	151.87
786.00	151.90
787.00	152.34
788.00	150.05
789.00	151.70
790.00	152.59
791.00	150.11
792.00	151.16
793.00	151.41
794.00	150.69
795.00	150.07
796.00	152.22
797.00	149.96
798.00	152.09
799.00	151.00
800.00	150.80
801.00	151.65
802.00	150.17
803.00	151.22
804.00	151.85
805.00	150.92
806.00	151.00
807.00	150.76
808.00	149.49
809.00	150.81
810.00	152.18
811.00	151.14
812.00	150.57
813.00	152.61
814.00	150.93
815.00	152.30
816.00	150.73
817.00	152.06
818.00	151.04
819.00	150.64
820.00	150.80
821.00	150.27
822.00	151.55
823.00	151.37
824.00	150.17
825.00	151.57
826.00	151.45
827.00	151.09
828.00	152.12
829.00	150.86
830.00	152.62
831.00	151.43
832.00	150.92
833.00	150.80
834.00	150.42
835.00	151.71
836.00	150.66
837.00	150.71
838.00	151.36
839.00	150.91
840.00	150.37
841.00	151.12
842.00	151.64
843.00	149.78
844.00	151.41
845.00	151.88
846.00	151.01
847.00	150.39
848.00	150.73
849.00	150.45
850.00	160.91
851.00	150.47
852.00	150.27
853.00	151.93
854.00	152.19
855.00	153.25
856.00	151.82
857.00	152.37
858.00	152.65
859.00	150.72
860.00	151.41
861.00	151.20
862.00	150.78
863.00	150.64
864.00	150.84
865.00	151.09
866.00	150.49
867.00	151.44
868.00	152.93
869.00	151.52
870.00	151.75
871.00	150.97
872.00	152.85
873.00	152.21
874.00	151.34
875.00	150.68
876.00	150.88
877.00	150.74
878.00	151.55
879.00	150.40
880.00	151.77
881.00	151.38
882.00	150.19
883.00	150.92
884.00	151.70
885.00	150.81
886.00	150.28
887.00	150.94
888.00	150.74
889.00	149.88
890.00	151.69
891.00	151.74
892.00	153.75
893.00	150.91
894.00	151.26
895.00	151.57
896.00	152.36
897.00	151.85
898.00	150.69
899.00	151.82
900.00	150.62
901.00	152.88
902.00	149.90
903.00	151.23
904.00	150.43
905.00	154.00
906.00	153.22
907.00	151.30
908.00	151.10
909.00	150.78
910.00	153.07
911.00	152.41
912.00	153.27
913.00	150.45
914.00	150.82
915.00	152.45
916.00	151.87
917.00	150.51
918.00	151.44
919.00	157.91
920.00	152.02
921.00	151.68
922.00	150.34
923.00	150.57
924.00	151.67
925.00	155.00
926.00	152.86
927.00	150.46
928.00	152.97
929.00	149.59
930.00	151.25
931.00	152.95
932.00	151.55
933.00	154.20
934.00	151.36
935.00	150.61
936.00	150.88
937.00	152.22
938.00	153.10
939.00	151.62
940.00	151.52
941.00	152.37
942.00	153.92
943.00	152.02
944.00	151.75
945.00	151.63
946.00	152.15
947.00	150.66
948.00	151.50
949.00	150.56
950.00	152.01
951.00	151.91
952.00	151.65
953.00	151.18
954.00	151.30
955.00	150.75
956.00	153.17
957.00	151.90
958.00	151.14
959.00	151.87
960.00	153.20
961.00	152.46
962.00	153.23
963.00	151.08
964.00	151.99
965.00	151.93
966.00	152.30
967.00	151.80
968.00	153.87
969.00	154.32
970.00	151.14
971.00	150.43
972.00	154.08
973.00	152.11
974.00	152.23
975.00	150.96
976.00	152.21
977.00	151.60
978.00	151.65
979.00	152.15
980.00	151.52
981.00	151.19
982.00	152.26
983.00	150.05
984.00	147.22
985.00	151.91
986.00	151.69
987.00	152.09
988.00	152.66
989.00	151.69
990.00	151.54
991.00	151.60
992.00	151.78
993.00	152.03
994.00	150.73
995.00	151.92
996.00	153.62
997.00	154.51
998.00	152.36
999.00	152.61
1000.00	151.05
>>>>>End Processed Spectral Data<<<<<
