SpectraSuite Data File
++++++++++++++++++++++++++++++++++++
Date: Tue Aug 04 12:14:17 PDT 2026
User: Stephen Warren
Dark Spectrum Present: No
Reference Spectrum Present: No
Number of Sampled Component Spectra: 1
Spectrometers: USB2G24357
Integration Time (usec): 48000 (USB2G24357)
Spectra Averaged: 200 (USB2G24357)
Boxcar Smoothing: 0 (USB2G24357)
Correct for Electrical Dark: No (USB2G24357)
Strobe/Lamp Enabled: No (USB2G24357)
Correct for Detector Non-linearity: No (USB2G24357)
Correct for Stray Light: No (USB2G24357)
Number of Pixels in Processed Spectrum: 651
>>>>>Begin Processed Spectral Data<<<<<
350.00	159.67
351.00	159.89
352.00	160.48
353.00	161.17
354.00	160.54
355.00	160.24
356.00	160.17
357.00	160.03
358.00	162.11
359.00	160.50
360.00	160.25
361.00	161.39
362.00	160.99
363.00	160.43
364.00	160.88
365.00	160.28
366.00	160.97
367.00	162.27
368.00	161.78
369.00	162.05
370.00	161.52
371.00	161.87
372.00	161.58
373.00	162.69
374.00	161.44
375.00	161.16
376.00	160.62
377.00	162.45
378.00	162.35
379.00	161.86
380.00	161.00
381.00	162.28
382.00	161.47
383.00	160.97
384.00	160.99
385.00	161.20
386.00	161.71
387.00	161.78
388.00	161.32
389.00	162.27
390.00	161.20
391.00	161.69
392.00	162.43
393.00	162.98
394.00	162.26
395.00	165.03
396.00	161.91
397.00	161.59
398.00	162.22
399.00	161.87
400.00	161.99
401.00	161.71
402.00	162.47
403.00	162.49
404.00	161.65
405.00	162.10
406.00	162.21
407.00	162.49
408.00	162.10
409.00	162.68
410.00	162.27
411.00	161.47
412.00	162.96
413.00	163.43
414.00	163.33
415.00	163.50
416.00	164.01
417.00	162.83
418.00	163.22
419.00	165.32
420.00	164.23
421.00	164.71
422.00	163.53
423.00	163.52
424.00	163.66
425.00	164.27
426.00	163.53
427.00	164.97
428.00	163.85
429.00	163.80
430.00	164.68
431.00	163.81
432.00	164.65
433.00	164.80
434.00	165.86
435.00	164.97
436.00	165.45
437.00	165.73
438.00	166.37
439.00	166.66
440.00	166.23
441.00	166.43
442.00	166.42
443.00	168.03
444.00	166.62
445.00	167.51
446.00	167.38
447.00	166.35
448.00	167.39
449.00	168.65
450.00	168.02
451.00	167.71
452.00	167.19
453.00	167.63
454.00	167.94
455.00	168.43
456.00	168.50
457.00	169.40
458.00	169.50
459.00	169.96
460.00	169.17
461.00	169.62
462.00	171.11
463.00	170.90
464.00	172.30
465.00	172.31
466.00	171.83
467.00	174.21
468.00	173.77
469.00	173.50
470.00	173.86
471.00	173.49
472.00	173.44
473.00	174.33
474.00	174.65
475.00	175.14
476.00	175.21
477.00	176.10
478.00	176.26
479.00	177.37
480.00	177.15
481.00	176.99
482.00	177.82
483.00	178.17
484.00	179.97
485.00	180.84
486.00	180.77
487.00	181.06
488.00	180.93
489.00	182.45
490.00	183.89
491.00	183.86
492.00	185.87
493.00	186.07
494.00	187.36
495.00	187.04
496.00	188.85
497.00	190.07
498.00	191.19
499.00	190.21
500.00	191.17
501.00	190.37
502.00	190.81
503.00	191.56
504.00	191.76
505.00	191.73
506.00	191.57
507.00	192.01
508.00	193.85
509.00	191.69
510.00	192.26
511.00	191.57
512.00	191.67
513.00	191.89
514.00	192.01
515.00	192.33
516.00	192.57
517.00	192.88
518.00	192.27
519.00	194.65
520.00	194.31
521.00	193.63
522.00	193.94
523.00	194.84
524.00	194.86
525.00	194.55
526.00	195.85
527.00	196.97
528.00	197.60
529.00	199.22
530.00	197.88
531.00	198.52
532.00	199.61
533.00	200.46
534.00	201.49
535.00	203.04
536.00	202.75
537.00	202.69
538.00	202.82
539.00	205.77
540.00	205.40
541.00	204.65
542.00	205.37
543.00	205.24
544.00	203.94
545.00	205.69
546.00	205.05
547.00	208.80
548.00	206.29
549.00	205.33
550.00	205.40
551.00	206.20
552.00	204.74
553.00	205.24
554.00	205.55
555.00	206.17
556.00	206.36
557.00	205.68
558.00	205.93
559.00	207.36
560.00	208.08
561.00	206.06
562.00	208.13
563.00	208.64
564.00	208.33
565.00	210.13
566.00	209.64
567.00	210.85
568.00	211.06
569.00	211.50
570.00	212.88
571.00	212.29
572.00	214.38
573.00	214.62
574.00	215.15
575.00	216.25
576.00	216.26
577.00	216.74
578.00	219.71
579.00	219.05
580.00	221.11
581.00	220.98
582.00	221.51
583.00	222.25
584.00	224.09
585.00	223.48
586.00	223.66
587.00	224.55
588.00	223.80
589.00	224.23
590.00	224.59
591.00	224.54
592.00	225.48
593.00	223.23
594.00	224.44
595.00	222.71
596.00	222.59
597.00	223.60
598.00	223.57
599.00	223.87
600.00	222.57
601.00	222.86
602.00	222.79
603.00	223.57
604.00	223.03
605.00	224.32
606.00	223.19
607.00	222.11
608.00	223.31
609.00	223.61
610.00	222.64
611.00	223.58
612.00	224.31
613.00	223.11
614.00	224.22
615.00	223.35
616.00	224.77
617.00	224.18
618.00	225.85
619.00	224.90
620.00	225.52
621.00	226.59
622.00	226.44
623.00	226.21
624.00	227.09
625.00	228.50
626.00	228.90
627.00	230.96
628.00	229.00
629.00	228.97
630.00	228.68
631.00	230.36
632.00	229.87
633.00	229.60
634.00	230.26
635.00	231.43
636.00	230.31
637.00	231.10
638.00	231.13
639.00	230.54
640.00	229.96
641.00	230.36
642.00	228.78
643.00	228.98
644.00	228.62
645.00	228.94
646.00	228.36
647.00	228.31
648.00	226.36
649.00	226.03
650.00	224.57
651.00	224.50
652.00	223.86
653.00	224.34
654.00	223.49
655.00	222.53
656.00	222.26
657.00	221.08
658.00	222.91
659.00	219.41
660.00	220.20
661.00	218.35
662.00	218.14
663.00	217.77
664.00	218.26
665.00	218.03
666.00	217.13
667.00	215.58
668.00	217.37
669.00	215.35
670.00	215.25
671.00	213.91
672.00	212.78
673.00	212.72
674.00	214.02
675.00	213.11
676.00	213.49
677.00	212.29
678.00	210.84
679.00	210.85
680.00	210.02
681.00	211.49
682.00	211.69
683.00	209.49
684.00	210.19
685.00	208.79
686.00	209.90
687.00	208.41
688.00	207.39
689.00	206.47
690.00	207.01
691.00	205.69
692.00	206.15
693.00	206.44
694.00	205.26
695.00	204.56
696.00	204.48
697.00	204.04
698.00	203.05
699.00	202.42
700.00	201.47
701.00	201.35
702.00	199.40
703.00	204.29
704.00	197.97
705.00	197.57
706.00	197.88
707.00	194.77
708.00	193.82
709.00	193.45
710.00	191.88
711.00	191.31
712.00	188.64
713.00	188.28
714.00	186.22
715.00	185.60
716.00	184.98
717.00	183.22
718.00	182.16
719.00	180.37
720.00	179.06
721.00	177.82
722.00	178.13
723.00	177.21
724.00	174.99
725.00	174.13
726.00	173.67
727.00	171.86
728.00	171.28
729.00	169.66
730.00	170.23
731.00	168.58
732.00	169.97
733.00	167.41
734.00	167.15
735.00	166.10
736.00	165.38
737.00	164.78
738.00	165.16
739.00	164.06
740.00	164.47
741.00	163.56
742.00	163.55
743.00	163.50
744.00	163.87
745.00	163.54
746.00	163.44
747.00	162.46
748.00	162.84
749.00	161.89
750.00	162.51
751.00	162.59
752.00	162.20
753.00	162.28
754.00	163.38
755.00	161.22
756.00	161.55
757.00	161.99
758.00	163.25
759.00	161.30
760.00	161.53
761.00	161.19
762.00	160.81
763.00	162.06
764.00	161.09
765.00	162.46
766.00	161.84
767.00	161.91
768.00	161.60
769.00	160.81
770.00	161.39
771.00	161.25
772.00	160.27
773.00	161.40
774.00	161.65
775.00	162.09
776.00	160.22
777.00	160.76
778.00	161.30
779.00	160.61
780.00	161.06
781.00	161.09
782.00	161.93
783.00	163.74
784.00	160.56
785.00	162.49
786.00	161.92
787.00	162.73
788.00	160.84
789.00	161.93
790.00	162.31
791.00	160.86
792.00	161.35
793.00	161.61
794.00	161.27
795.00	160.43
796.00	162.03
797.00	160.09
798.00	161.36
799.00	161.34
800.00	160.95
801.00	161.97
802.00	160.38
803.00	161.49
804.00	161.96
805.00	161.45
806.00	160.63
807.00	161.36
808.00	160.19
809.00	161.18
810.00	161.94
811.00	161.37
812.00	161.08
813.00	162.42
814.00	160.96
815.00	162.40
816.00	161.07
817.00	162.41
818.00	161.10
819.00	160.61
820.00	160.71
821.00	160.78
822.00	161.83
823.00	161.13
824.00	160.37
825.00	162.01
826.00	161.62
827.00	161.42
828.00	161.94
829.00	160.85
830.00	162.23
831.00	161.40
832.00	161.22
833.00	161.15
834.00	160.40
835.00	161.47
836.00	161.13
837.00	160.49
838.00	161.35
839.00	160.89
840.00	160.88
841.00	161.42
842.00	161.79
843.00	160.01
844.00	161.51
845.00	161.75
846.00	161.12
847.00	160.36
848.00	160.76
849.00	160.38
850.00	169.65
851.00	160.50
852.00	160.39
853.00	161.80
854.00	162.14
855.00	162.87
856.00	161.85
857.00	162.09
858.00	162.71
859.00	160.97
860.00	161.39
861.00	161.33
862.00	160.97
863.00	161.34
864.00	161.23
865.00	161.01
866.00	160.50
867.00	161.51
868.00	162.83
869.00	161.45
870.00	161.80
871.00	161.13
872.00	162.34
873.00	161.98
874.00	161.49
875.00	160.59
876.00	160.69
877.00	160.42
878.00	161.61
879.00	160.09
880.00	161.64
881.00	161.49
882.00	160.12
883.00	160.94
884.00	161.71
885.00	160.83
886.00	160.24
887.00	161.23
888.00	161.14
889.00	160.19
890.00	162.12
891.00	161.24
892.00	163.24
893.00	161.24
894.00	161.28
895.00	161.58
896.00	161.77
897.00	161.56
898.00	160.75
899.00	161.96
900.00	160.79
901.00	162.58
902.00	160.53
903.00	161.40
904.00	160.64
905.00	163.91
906.00	162.51
907.00	161.53
908.00	160.81
909.00	161.15
910.00	162.65
911.00	162.07
912.00	163.20
913.00	160.47
914.00	161.06
915.00	162.29
916.00	161.58
917.00	161.04
918.00	161.74
919.00	163.58
920.00	161.84
921.00	161.50
922.00	160.55
923.00	160.62
924.00	161.56
925.00	165.04
926.00	162.88
927.00	160.55
928.00	162.83
929.00	160.26
930.00	161.35
931.00	162.81
932.00	161.24
933.00	163.97
934.00	161.51
935.00	160.83
936.00	161.34
937.00	162.36
938.00	162.70
939.00	161.41
940.00	161.76
941.00	162.05
942.00	163.54
943.00	161.69
944.00	161.92
945.00	161.35
946.00	162.13
947.00	160.70
948.00	161.10
949.00	161.01
950.00	161.81
951.00	161.39
952.00	161.94
953.00	160.92
954.00	161.45
955.00	161.54
956.00	163.18
957.00	161.69
958.00	161.04
959.00	161.79
960.00	163.20
961.00	161.69
962.00	163.28
963.00	161.48
964.00	161.48
965.00	161.70
966.00	162.46
967.00	161.69
968.00	163.42
969.00	163.96
970.00	161.49
971.00	160.66
972.00	163.72
973.00	161.97
974.00	162.19
975.00	161.16
976.00	162.11
977.00	161.38
978.00	161.47
979.00	161.78
980.00	161.76
981.00	161.42
982.00	161.87
983.00	160.44
984.00	158.67
985.00	161.61
986.00	161.69
987.00	162.06
988.00	162.61
989.00	161.84
990.00	161.43
991.00	161.69
992.00	162.10
993.00	162.11
994.00	160.94
995.00	161.92
996.00	163.60
997.00	162.90
998.00	161.99
999.00	162.56
1000.00	160.91
>>>>>End Processed Spectral Data<<<<<
