SpectraSuite Data File
++++++++++++++++++++++++++++++++++++
Date: Tue Aug 04 12:07:33 PDT 2026
User: Stephen Warren
Dark Spectrum Present: No
Reference Spectrum Present: No
Number of Sampled Component Spectra: 1
Spectrometers: USB2G24357
Integration Time (usec): 48000 (USB2G24357)
Spectra Averaged: 200 (USB2G24357)
Boxcar Smoothing: 0 (USB2G24357)
Correct for Electrical Dark: No (USB2G24357)
Strobe/Lamp Enabled: No (USB2G24357)
Correct for Detector Non-linearity: No (USB2G24357)
Correct for Stray Light: No (USB2G24357)
Number of Pixels in Processed Spectrum: 651
>>>>>Begin Processed Spectral Data<<<<<
350.00	159.84
351.00	160.05
352.00	160.51
353.00	160.90
354.00	160.82
355.00	160.87
356.00	160.38
357.00	160.30
358.00	161.71
359.00	160.92
360.00	160.63
361.00	161.81
362.00	161.59
363.00	160.65
364.00	161.38
365.00	160.76
366.00	161.81
367.00	162.64
368.00	161.74
369.00	162.03
370.00	161.87
371.00	162.19
372.00	162.30
373.00	163.11
374.00	161.95
375.00	161.02
376.00	160.78
377.00	162.27
378.00	162.36
379.00	162.59
380.00	161.29
381.00	162.56
382.00	161.87
383.00	161.42
384.00	161.84
385.00	161.95
386.00	162.08
387.00	162.09
388.00	161.79
389.00	162.24
390.00	161.78
391.00	161.71
392.00	162.63
393.00	163.26
394.00	162.63
395.00	165.24
396.00	162.11
397.00	161.98
398.00	162.61
399.00	162.59
400.00	162.14
401.00	162.09
402.00	162.49
403.00	162.86
404.00	161.92
405.00	162.86
406.00	162.71
407.00	163.17
408.00	162.54
409.00	163.83
410.00	162.58
411.00	162.10
412.00	163.84
413.00	164.40
414.00	164.12
415.00	163.93
416.00	164.60
417.00	163.56
418.00	163.61
419.00	165.42
420.00	164.68
421.00	165.29
422.00	164.06
423.00	164.39
424.00	164.51
425.00	165.17
426.00	164.47
427.00	165.76
428.00	164.89
429.00	164.91
430.00	165.26
431.00	164.71
432.00	165.04
433.00	165.66
434.00	166.98
435.00	166.43
436.00	166.69
437.00	166.94
438.00	167.48
439.00	167.73
440.00	167.95
441.00	167.49
442.00	167.97
443.00	169.87
444.00	168.35
445.00	168.71
446.00	168.61
447.00	168.53
448.00	168.93
449.00	170.32
450.00	169.90
451.00	169.19
452.00	169.27
453.00	169.30
454.00	170.08
455.00	170.51
456.00	170.41
457.00	171.65
458.00	171.79
459.00	171.64
460.00	171.56
461.00	172.66
462.00	173.60
463.00	173.53
464.00	175.10
465.00	175.02
466.00	175.12
467.00	177.00
468.00	176.53
469.00	176.48
470.00	176.99
471.00	177.09
472.00	176.92
473.00	177.84
474.00	178.07
475.00	179.26
476.00	178.99
477.00	179.32
478.00	179.94
479.00	181.56
480.00	181.54
481.00	180.74
482.00	182.13
483.00	182.52
484.00	184.06
485.00	185.81
486.00	185.90
487.00	185.90
488.00	185.93
489.00	187.62
490.00	189.33
491.00	189.30
492.00	191.36
493.00	192.54
494.00	193.42
495.00	193.37
496.00	195.33
497.00	196.63
498.00	197.33
499.00	197.09
500.00	197.69
501.00	197.13
502.00	197.71
503.00	198.40
504.00	199.43
505.00	198.47
506.00	199.03
507.00	199.11
508.00	201.19
509.00	198.21
510.00	199.20
511.00	197.91
512.00	198.53
513.00	198.76
514.00	199.47
515.00	199.01
516.00	199.27
517.00	199.69
518.00	198.94
519.00	201.29
520.00	201.40
521.00	200.52
522.00	201.78
523.00	202.38
524.00	202.07
525.00	202.72
526.00	202.76
527.00	204.46
528.00	204.97
529.00	207.03
530.00	205.29
531.00	206.02
532.00	207.43
533.00	208.58
534.00	209.52
535.00	211.34
536.00	211.15
537.00	212.04
538.00	211.78
539.00	214.17
540.00	214.48
541.00	213.11
542.00	213.69
543.00	214.21
544.00	213.30
545.00	214.50
546.00	213.93
547.00	217.71
548.00	215.39
549.00	213.53
550.00	214.37
551.00	214.23
552.00	212.75
553.00	213.70
554.00	213.80
555.00	214.98
556.00	215.59
557.00	214.64
558.00	214.71
559.00	216.28
560.00	216.83
561.00	213.99
562.00	216.31
563.00	216.57
564.00	216.99
565.00	218.54
566.00	217.74
567.00	219.22
568.00	219.70
569.00	220.48
570.00	222.46
571.00	221.78
572.00	223.43
573.00	223.52
574.00	224.57
575.00	225.71
576.00	225.94
577.00	226.09
578.00	230.09
579.00	229.57
580.00	231.15
581.00	231.45
582.00	231.76
583.00	232.70
584.00	234.05
585.00	234.22
586.00	234.62
587.00	235.00
588.00	234.73
589.00	235.40
590.00	235.35
591.00	235.88
592.00	235.08
593.00	234.30
594.00	234.82
595.00	233.34
596.00	232.89
597.00	234.14
598.00	234.20
599.00	233.19
600.00	232.88
601.00	232.68
602.00	232.64
603.00	233.22
604.00	232.98
605.00	233.83
606.00	233.64
607.00	232.36
608.00	233.06
609.00	233.03
610.00	232.75
611.00	233.16
612.00	234.31
613.00	233.17
614.00	233.83
615.00	232.54
616.00	234.88
617.00	233.69
618.00	235.89
619.00	235.40
620.00	234.99
621.00	236.90
622.00	236.50
623.00	235.36
624.00	237.84
625.00	238.43
626.00	238.92
627.00	240.91
628.00	238.86
629.00	239.58
630.00	239.24
631.00	240.96
632.00	240.19
633.00	240.27
634.00	240.68
635.00	241.44
636.00	239.94
637.00	241.43
638.00	241.71
639.00	240.68
640.00	240.81
641.00	240.53
642.00	239.23
643.00	239.04
644.00	238.00
645.00	238.75
646.00	238.07
647.00	237.61
648.00	236.33
649.00	235.91
650.00	234.12
651.00	233.30
652.00	232.57
653.00	232.80
654.00	232.80
655.00	231.39
656.00	231.29
657.00	229.83
658.00	231.42
659.00	227.88
660.00	228.72
661.00	227.31
662.00	226.61
663.00	225.63
664.00	226.46
665.00	225.52
666.00	225.00
667.00	223.85
668.00	225.93
669.00	223.26
670.00	222.89
671.00	221.22
672.00	220.42
673.00	220.12
674.00	221.44
675.00	220.87
676.00	220.56
677.00	220.03
678.00	218.54
679.00	218.47
680.00	217.50
681.00	218.82
682.00	218.38
683.00	215.72
684.00	216.58
685.00	215.64
686.00	216.42
687.00	215.04
688.00	213.71
689.00	212.82
690.00	214.11
691.00	212.00
692.00	212.29
693.00	212.92
694.00	211.43
695.00	210.25
696.00	211.06
697.00	210.03
698.00	208.71
699.00	208.02
700.00	207.60
701.00	207.29
702.00	204.89
703.00	209.23
704.00	203.74
705.00	202.80
706.00	202.82
707.00	199.80
708.00	198.81
709.00	197.69
710.00	196.48
711.00	195.11
712.00	192.98
713.00	192.16
714.00	190.30
715.00	188.97
716.00	188.41
717.00	186.50
718.00	185.22
719.00	182.94
720.00	181.70
721.00	180.64
722.00	180.70
723.00	179.27
724.00	177.96
725.00	175.90
726.00	175.75
727.00	173.30
728.00	172.75
729.00	171.22
730.00	171.19
731.00	169.56
732.00	171.12
733.00	168.53
734.00	167.88
735.00	167.15
736.00	166.23
737.00	165.47
738.00	166.19
739.00	164.69
740.00	165.12
741.00	163.71
742.00	164.06
743.00	163.63
744.00	164.43
745.00	164.08
746.00	163.76
747.00	162.98
748.00	163.55
749.00	162.51
750.00	163.16
751.00	162.88
752.00	162.76
753.00	162.50
754.00	163.55
755.00	161.81
756.00	161.70
757.00	162.54
758.00	163.35
759.00	161.44
760.00	161.34
761.00	161.83
762.00	160.98
763.00	162.62
764.00	161.60
765.00	163.42
766.00	162.47
767.00	162.42
768.00	161.91
769.00	161.40
770.00	161.39
771.00	161.79
772.00	160.46
773.00	162.12
774.00	161.60
775.00	162.40
776.00	160.64
777.00	161.24
778.00	161.74
779.00	160.55
780.00	161.44
781.00	161.68
782.00	161.83
783.00	163.89
784.00	160.99
785.00	162.37
786.00	162.20
787.00	162.92
788.00	161.12
789.00	161.97
790.00	162.84
791.00	161.00
792.00	161.29
793.00	162.05
794.00	161.33
795.00	161.01
796.00	162.57
797.00	160.74
798.00	162.01
799.00	161.33
800.00	161.44
801.00	162.29
802.00	160.91
803.00	161.37
804.00	162.18
805.00	161.55
806.00	161.56
807.00	161.40
808.00	160.15
809.00	161.34
810.00	162.38
811.00	161.55
812.00	161.31
813.00	162.26
814.00	161.43
815.00	162.72
816.00	161.29
817.00	162.40
818.00	161.18
819.00	161.19
820.00	161.34
821.00	160.84
822.00	162.01
823.00	161.29
824.00	160.77
825.00	162.48
826.00	161.73
827.00	161.69
828.00	162.27
829.00	161.19
830.00	162.93
831.00	162.07
832.00	161.73
833.00	161.26
834.00	160.76
835.00	162.28
836.00	161.05
837.00	160.99
838.00	161.83
839.00	161.21
840.00	161.38
841.00	161.64
842.00	162.07
843.00	160.00
844.00	161.82
845.00	162.22
846.00	161.18
847.00	160.79
848.00	161.12
849.00	160.81
850.00	169.23
851.00	160.64
852.00	160.78
853.00	161.74
854.00	162.46
855.00	163.21
856.00	162.23
857.00	162.53
858.00	163.17
859.00	161.34
860.00	162.27
861.00	161.73
862.00	161.14
863.00	161.37
864.00	161.46
865.00	161.01
866.00	160.94
867.00	161.95
868.00	163.24
869.00	161.91
870.00	162.00
871.00	160.80
872.00	162.70
873.00	162.46
874.00	161.88
875.00	160.83
876.00	160.81
877.00	161.15
878.00	161.82
879.00	160.48
880.00	162.38
881.00	161.96
882.00	160.66
883.00	161.18
884.00	162.22
885.00	161.27
886.00	160.52
887.00	161.39
888.00	161.03
889.00	160.52
890.00	161.99
891.00	161.62
892.00	163.59
893.00	161.17
894.00	161.60
895.00	161.69
896.00	162.20
897.00	162.00
898.00	161.08
899.00	162.37
900.00	161.44
901.00	162.91
902.00	160.76
903.00	161.92
904.00	160.43
905.00	163.95
906.00	162.44
907.00	161.97
908.00	161.21
909.00	161.27
910.00	163.16
911.00	162.48
912.00	163.47
913.00	161.03
914.00	161.62
915.00	162.63
916.00	161.86
917.00	160.95
918.00	162.20
919.00	167.32
920.00	162.05
921.00	161.82
922.00	160.73
923.00	160.87
924.00	162.43
925.00	164.89
926.00	162.88
927.00	160.90
928.00	163.48
929.00	160.68
930.00	161.69
931.00	162.65
932.00	161.75
933.00	164.13
934.00	161.49
935.00	161.35
936.00	161.33
937.00	162.85
938.00	162.79
939.00	161.42
940.00	161.74
941.00	161.98
942.00	163.60
943.00	162.21
944.00	162.09
945.00	161.92
946.00	162.44
947.00	160.71
948.00	161.14
949.00	161.07
950.00	162.18
951.00	161.24
952.00	162.17
953.00	161.55
954.00	161.69
955.00	161.20
956.00	163.10
957.00	161.71
958.00	161.81
959.00	162.13
960.00	163.60
961.00	162.34
962.00	163.10
963.00	161.80
964.00	161.96
965.00	161.82
966.00	162.23
967.00	161.99
968.00	163.87
969.00	164.34
970.00	161.66
971.00	161.15
972.00	163.57
973.00	161.90
974.00	162.40
975.00	162.01
976.00	162.06
977.00	161.84
978.00	161.68
979.00	162.30
980.00	161.61
981.00	161.57
982.00	162.46
983.00	160.56
984.00	160.24
985.00	161.95
986.00	161.98
987.00	162.09
988.00	162.77
989.00	161.69
990.00	161.79
991.00	162.17
992.00	162.37
993.00	162.13
994.00	161.37
995.00	162.06
996.00	163.34
997.00	163.23
998.00	162.37
999.00	162.47
1000.00	160.89
>>>>>End Processed Spectral Data<<<<<
