SpectraSuite Data File
++++++++++++++++++++++++++++++++++++
Date: Fri Jul 17 15:42:26 PDT 2026
User: Stephen Warren
Dark Spectrum Present: No
Reference Spectrum Present: No
Number of Sampled Component Spectra: 1
Spectrometers: USB2G24357
Integration Time (usec): 48000 (USB2G24357)
Spectra Averaged: 200 (USB2G24357)
Boxcar Smoothing: 0 (USB2G24357)
Correct for Electrical Dark: No (USB2G24357)
Strobe/Lamp Enabled: No (USB2G24357)
Correct for Detector Non-linearity: No (USB2G24357)
Correct for Stray Light: No (USB2G24357)
Number of Pixels in Processed Spectrum: 651
>>>>>Begin Processed Spectral Data<<<<<
350.00	161.92
351.00	162.37
352.00	163.08
353.00	163.50
354.00	163.22
355.00	163.57
356.00	162.89
357.00	162.75
358.00	164.86
359.00	163.42
360.00	163.13
361.00	163.65
362.00	163.59
363.00	162.95
364.00	163.48
365.00	163.71
366.00	164.00
367.00	164.61
368.00	164.30
369.00	164.67
370.00	164.22
371.00	164.54
372.00	164.20
373.00	165.70
374.00	164.37
375.00	163.87
376.00	163.41
377.00	164.65
378.00	165.19
379.00	164.90
380.00	164.09
381.00	164.67
382.00	164.16
383.00	164.02
384.00	163.95
385.00	163.95
386.00	164.06
387.00	164.35
388.00	163.74
389.00	164.98
390.00	164.26
391.00	164.42
392.00	165.17
393.00	165.80
394.00	165.14
395.00	167.70
396.00	164.84
397.00	164.72
398.00	165.33
399.00	165.23
400.00	165.07
401.00	164.80
402.00	165.22
403.00	165.60
404.00	164.60
405.00	165.42
406.00	165.67
407.00	165.98
408.00	165.68
409.00	166.98
410.00	165.85
411.00	165.56
412.00	166.89
413.00	167.02
414.00	167.49
415.00	167.56
416.00	167.96
417.00	167.19
418.00	167.68
419.00	169.73
420.00	168.45
421.00	169.29
422.00	168.52
423.00	168.14
424.00	168.75
425.00	169.32
426.00	168.82
427.00	170.46
428.00	169.11
429.00	169.53
430.00	170.11
431.00	169.91
432.00	170.92
433.00	170.72
434.00	172.29
435.00	172.27
436.00	172.28
437.00	172.95
438.00	173.84
439.00	174.16
440.00	174.73
441.00	174.40
442.00	174.94
443.00	176.51
444.00	175.91
445.00	176.02
446.00	176.04
447.00	176.30
448.00	177.07
449.00	178.47
450.00	177.51
451.00	177.28
452.00	176.82
453.00	177.50
454.00	178.06
455.00	178.50
456.00	179.05
457.00	180.23
458.00	180.81
459.00	181.35
460.00	181.33
461.00	182.34
462.00	184.16
463.00	184.55
464.00	186.11
465.00	185.99
466.00	186.43
467.00	189.16
468.00	188.84
469.00	189.30
470.00	190.41
471.00	190.00
472.00	189.86
473.00	191.16
474.00	191.39
475.00	193.11
476.00	193.18
477.00	193.67
478.00	194.18
479.00	195.71
480.00	196.62
481.00	196.68
482.00	198.61
483.00	198.68
484.00	200.87
485.00	202.88
486.00	203.35
487.00	204.51
488.00	205.37
489.00	207.32
490.00	209.47
491.00	210.18
492.00	213.01
493.00	214.45
494.00	216.14
495.00	216.66
496.00	218.82
497.00	220.80
498.00	221.88
499.00	221.63
500.00	222.56
501.00	221.73
502.00	223.31
503.00	223.12
504.00	223.72
505.00	223.26
506.00	224.02
507.00	224.35
508.00	225.73
509.00	223.46
510.00	223.83
511.00	222.84
512.00	223.24
513.00	224.09
514.00	224.30
515.00	224.59
516.00	224.43
517.00	225.06
518.00	224.45
519.00	227.49
520.00	226.33
521.00	227.10
522.00	227.99
523.00	229.36
524.00	229.29
525.00	229.68
526.00	231.18
527.00	231.68
528.00	233.43
529.00	234.95
530.00	234.11
531.00	235.47
532.00	237.16
533.00	238.77
534.00	240.13
535.00	242.79
536.00	242.54
537.00	244.41
538.00	243.69
539.00	246.64
540.00	246.65
541.00	246.46
542.00	246.58
543.00	246.73
544.00	246.01
545.00	247.43
546.00	247.41
547.00	250.42
548.00	247.66
549.00	246.41
550.00	247.30
551.00	247.02
552.00	245.16
553.00	246.77
554.00	247.35
555.00	248.03
556.00	247.66
557.00	247.17
558.00	247.86
559.00	249.24
560.00	249.57
561.00	248.19
562.00	250.16
563.00	251.14
564.00	251.28
565.00	252.85
566.00	253.30
567.00	254.55
568.00	255.66
569.00	255.70
570.00	257.95
571.00	258.97
572.00	261.64
573.00	262.05
574.00	263.22
575.00	265.17
576.00	265.96
577.00	266.30
578.00	271.08
579.00	270.73
580.00	273.94
581.00	273.32
582.00	274.80
583.00	276.13
584.00	277.71
585.00	278.24
586.00	277.99
587.00	279.35
588.00	279.14
589.00	279.49
590.00	279.40
591.00	279.17
592.00	278.79
593.00	277.38
594.00	277.63
595.00	276.93
596.00	276.62
597.00	277.06
598.00	277.27
599.00	275.86
600.00	275.21
601.00	275.04
602.00	274.67
603.00	275.87
604.00	275.00
605.00	275.67
606.00	275.78
607.00	273.80
608.00	274.39
609.00	274.57
610.00	274.19
611.00	274.81
612.00	276.01
613.00	274.21
614.00	276.33
615.00	274.86
616.00	277.34
617.00	275.97
618.00	277.78
619.00	277.61
620.00	277.65
621.00	278.97
622.00	279.28
623.00	278.85
624.00	280.28
625.00	281.62
626.00	281.85
627.00	284.20
628.00	283.32
629.00	283.48
630.00	283.34
631.00	284.76
632.00	284.58
633.00	283.92
634.00	284.97
635.00	286.14
636.00	284.68
637.00	285.26
638.00	285.64
639.00	284.19
640.00	284.15
641.00	283.70
642.00	282.36
643.00	281.18
644.00	280.83
645.00	280.69
646.00	280.08
647.00	278.34
648.00	276.60
649.00	276.32
650.00	274.35
651.00	272.77
652.00	272.10
653.00	271.58
654.00	270.42
655.00	268.91
656.00	268.14
657.00	266.35
658.00	267.25
659.00	263.29
660.00	263.58
661.00	262.37
662.00	260.93
663.00	259.67
664.00	260.16
665.00	258.64
666.00	257.93
667.00	255.77
668.00	258.05
669.00	254.92
670.00	254.08
671.00	252.55
672.00	250.74
673.00	250.08
674.00	252.01
675.00	250.92
676.00	250.71
677.00	249.49
678.00	247.63
679.00	247.39
680.00	245.94
681.00	247.27
682.00	246.79
683.00	243.83
684.00	244.19
685.00	242.61
686.00	243.63
687.00	241.36
688.00	240.45
689.00	239.71
690.00	239.74
691.00	237.42
692.00	238.42
693.00	238.23
694.00	235.86
695.00	234.97
696.00	234.72
697.00	233.51
698.00	232.00
699.00	231.28
700.00	230.23
701.00	229.11
702.00	227.26
703.00	230.62
704.00	224.42
705.00	222.62
706.00	222.51
707.00	218.78
708.00	217.02
709.00	216.17
710.00	213.47
711.00	211.68
712.00	208.94
713.00	207.17
714.00	204.38
715.00	202.78
716.00	201.60
717.00	199.08
718.00	197.28
719.00	194.71
720.00	193.02
721.00	190.57
722.00	189.85
723.00	188.15
724.00	185.88
725.00	184.05
726.00	183.39
727.00	181.23
728.00	179.61
729.00	177.91
730.00	177.55
731.00	175.65
732.00	176.45
733.00	174.18
734.00	173.47
735.00	171.91
736.00	170.87
737.00	170.29
738.00	170.39
739.00	168.69
740.00	168.96
741.00	167.61
742.00	167.37
743.00	166.88
744.00	167.77
745.00	167.07
746.00	166.95
747.00	165.71
748.00	166.10
749.00	165.61
750.00	165.97
751.00	165.83
752.00	165.35
753.00	165.08
754.00	166.73
755.00	164.71
756.00	164.75
757.00	164.96
758.00	166.02
759.00	164.54
760.00	164.38
761.00	164.66
762.00	163.63
763.00	165.09
764.00	164.22
765.00	165.66
766.00	164.87
767.00	164.75
768.00	164.31
769.00	163.66
770.00	164.03
771.00	164.29
772.00	163.45
773.00	164.41
774.00	164.29
775.00	164.76
776.00	163.10
777.00	163.73
778.00	164.15
779.00	163.24
780.00	164.00
781.00	164.08
782.00	164.10
783.00	166.08
784.00	163.55
785.00	164.91
786.00	164.69
787.00	165.32
788.00	163.69
789.00	164.46
790.00	164.69
791.00	163.43
792.00	164.10
793.00	164.33
794.00	163.58
795.00	163.19
796.00	164.91
797.00	162.87
798.00	164.51
799.00	163.84
800.00	163.94
801.00	164.43
802.00	163.28
803.00	163.86
804.00	164.74
805.00	164.20
806.00	163.77
807.00	163.94
808.00	162.87
809.00	163.44
810.00	164.50
811.00	163.97
812.00	164.06
813.00	164.51
814.00	163.64
815.00	164.76
816.00	163.60
817.00	164.56
818.00	163.61
819.00	163.42
820.00	163.40
821.00	163.65
822.00	164.38
823.00	163.71
824.00	162.99
825.00	164.59
826.00	163.71
827.00	164.28
828.00	164.39
829.00	163.51
830.00	165.02
831.00	164.07
832.00	164.14
833.00	163.47
834.00	163.08
835.00	164.50
836.00	163.89
837.00	163.06
838.00	164.46
839.00	163.50
840.00	163.17
841.00	163.65
842.00	164.11
843.00	162.61
844.00	163.96
845.00	164.35
846.00	163.53
847.00	163.23
848.00	163.66
849.00	163.35
850.00	172.02
851.00	163.01
852.00	163.07
853.00	164.14
854.00	164.43
855.00	165.29
856.00	164.16
857.00	164.69
858.00	164.85
859.00	163.64
860.00	163.87
861.00	163.94
862.00	163.70
863.00	163.64
864.00	163.85
865.00	164.07
866.00	163.04
867.00	164.14
868.00	165.53
869.00	164.48
870.00	164.40
871.00	163.72
872.00	165.17
873.00	164.39
874.00	163.77
875.00	162.98
876.00	163.41
877.00	163.26
878.00	164.28
879.00	162.35
880.00	164.28
881.00	164.16
882.00	162.49
883.00	163.48
884.00	164.46
885.00	163.47
886.00	162.93
887.00	163.67
888.00	163.65
889.00	162.89
890.00	164.48
891.00	164.31
892.00	165.42
893.00	163.40
894.00	163.48
895.00	164.52
896.00	164.18
897.00	164.41
898.00	163.57
899.00	164.48
900.00	163.45
901.00	165.16
902.00	163.19
903.00	163.84
904.00	163.19
905.00	166.38
906.00	165.34
907.00	164.13
908.00	163.77
909.00	163.44
910.00	165.42
911.00	164.78
912.00	165.84
913.00	163.28
914.00	163.50
915.00	164.94
916.00	164.28
917.00	163.26
918.00	163.94
919.00	165.73
920.00	164.37
921.00	164.19
922.00	162.95
923.00	163.53
924.00	164.24
925.00	167.02
926.00	165.32
927.00	163.28
928.00	165.36
929.00	162.57
930.00	163.67
931.00	165.31
932.00	164.17
933.00	166.63
934.00	163.71
935.00	163.61
936.00	163.61
937.00	164.88
938.00	165.25
939.00	164.03
940.00	164.51
941.00	164.43
942.00	166.24
943.00	164.50
944.00	164.29
945.00	163.73
946.00	164.56
947.00	163.80
948.00	163.57
949.00	163.13
950.00	164.41
951.00	164.33
952.00	164.58
953.00	164.18
954.00	164.13
955.00	164.11
956.00	165.18
957.00	164.63
958.00	164.09
959.00	164.29
960.00	165.60
961.00	164.68
962.00	165.58
963.00	163.98
964.00	164.46
965.00	164.40
966.00	164.74
967.00	163.90
968.00	165.58
969.00	166.43
970.00	164.35
971.00	163.44
972.00	166.33
973.00	164.17
974.00	164.83
975.00	163.73
976.00	164.50
977.00	163.99
978.00	164.18
979.00	164.63
980.00	164.67
981.00	163.98
982.00	164.57
983.00	163.34
984.00	160.73
985.00	164.14
986.00	163.90
987.00	164.42
988.00	164.69
989.00	164.58
990.00	164.24
991.00	164.43
992.00	164.32
993.00	164.88
994.00	163.72
995.00	164.59
996.00	166.02
997.00	165.14
998.00	164.74
999.00	165.45
1000.00	163.37
>>>>>End Processed Spectral Data<<<<<
