SpectraSuite Data File
++++++++++++++++++++++++++++++++++++
Date: Mon Jun 22 13:24:41 PDT 2026
User: Stephen Warren
Dark Spectrum Present: No
Reference Spectrum Present: No
Number of Sampled Component Spectra: 1
Spectrometers: USB2G24357
Integration Time (usec): 48000 (USB2G24357)
Spectra Averaged: 200 (USB2G24357)
Boxcar Smoothing: 0 (USB2G24357)
Correct for Electrical Dark: No (USB2G24357)
Strobe/Lamp Enabled: No (USB2G24357)
Correct for Detector Non-linearity: No (USB2G24357)
Correct for Stray Light: No (USB2G24357)
Number of Pixels in Processed Spectrum: 651
>>>>>Begin Processed Spectral Data<<<<<
350.00	151.20
351.00	151.94
352.00	153.05
353.00	153.09
354.00	152.82
355.00	153.04
356.00	152.44
357.00	151.93
358.00	154.28
359.00	152.55
360.00	152.17
361.00	153.54
362.00	153.09
363.00	152.44
364.00	153.13
365.00	152.54
366.00	153.30
367.00	154.40
368.00	153.87
369.00	154.19
370.00	154.00
371.00	154.09
372.00	153.90
373.00	155.33
374.00	152.98
375.00	153.25
376.00	152.78
377.00	154.15
378.00	154.41
379.00	153.71
380.00	153.38
381.00	154.26
382.00	153.60
383.00	152.80
384.00	153.59
385.00	153.34
386.00	153.86
387.00	153.61
388.00	153.26
389.00	154.44
390.00	153.29
391.00	153.43
392.00	154.56
393.00	155.29
394.00	154.46
395.00	157.80
396.00	153.79
397.00	153.62
398.00	154.13
399.00	154.04
400.00	153.74
401.00	153.22
402.00	154.32
403.00	154.64
404.00	153.06
405.00	154.05
406.00	154.12
407.00	154.67
408.00	154.35
409.00	155.05
410.00	153.97
411.00	153.24
412.00	155.14
413.00	155.79
414.00	155.08
415.00	155.37
416.00	155.71
417.00	154.47
418.00	154.89
419.00	157.11
420.00	156.18
421.00	156.14
422.00	155.43
423.00	154.92
424.00	155.00
425.00	155.35
426.00	155.04
427.00	156.43
428.00	155.18
429.00	155.52
430.00	155.66
431.00	155.18
432.00	155.48
433.00	155.78
434.00	157.31
435.00	156.53
436.00	156.10
437.00	156.76
438.00	157.09
439.00	157.25
440.00	157.36
441.00	156.63
442.00	156.85
443.00	159.43
444.00	157.04
445.00	157.32
446.00	157.51
447.00	157.00
448.00	157.32
449.00	159.50
450.00	158.54
451.00	157.44
452.00	157.76
453.00	157.51
454.00	157.70
455.00	158.35
456.00	158.61
457.00	159.58
458.00	159.34
459.00	159.53
460.00	159.11
461.00	159.20
462.00	160.43
463.00	160.35
464.00	161.75
465.00	161.04
466.00	160.79
467.00	163.40
468.00	162.41
469.00	162.06
470.00	162.56
471.00	161.88
472.00	162.09
473.00	162.89
474.00	163.04
475.00	163.76
476.00	163.46
477.00	163.97
478.00	164.06
479.00	165.44
480.00	164.91
481.00	164.19
482.00	165.46
483.00	165.02
484.00	166.79
485.00	168.05
486.00	167.83
487.00	167.51
488.00	166.62
489.00	168.37
490.00	169.76
491.00	169.71
492.00	171.07
493.00	171.51
494.00	172.57
495.00	171.74
496.00	173.30
497.00	175.02
498.00	175.49
499.00	174.54
500.00	174.91
501.00	173.58
502.00	174.61
503.00	175.54
504.00	176.39
505.00	175.96
506.00	176.13
507.00	176.12
508.00	179.09
509.00	175.94
510.00	177.09
511.00	175.56
512.00	175.94
513.00	176.62
514.00	176.99
515.00	176.78
516.00	176.74
517.00	177.27
518.00	175.88
519.00	178.60
520.00	178.24
521.00	177.43
522.00	177.96
523.00	178.99
524.00	178.83
525.00	178.44
526.00	179.23
527.00	180.21
528.00	180.83
529.00	182.91
530.00	180.49
531.00	181.63
532.00	182.76
533.00	183.78
534.00	184.43
535.00	186.32
536.00	184.87
537.00	185.54
538.00	185.17
539.00	187.49
540.00	187.98
541.00	186.66
542.00	186.85
543.00	187.47
544.00	186.20
545.00	187.57
546.00	188.07
547.00	192.35
548.00	189.36
549.00	187.38
550.00	188.69
551.00	189.00
552.00	187.41
553.00	188.25
554.00	188.39
555.00	189.61
556.00	189.61
557.00	188.81
558.00	188.88
559.00	191.04
560.00	191.95
561.00	188.97
562.00	191.61
563.00	191.96
564.00	191.73
565.00	193.60
566.00	192.42
567.00	194.04
568.00	194.00
569.00	194.41
570.00	196.06
571.00	195.83
572.00	197.30
573.00	196.85
574.00	197.35
575.00	198.68
576.00	199.02
577.00	198.54
578.00	203.58
579.00	202.52
580.00	204.22
581.00	203.84
582.00	203.81
583.00	204.72
584.00	207.12
585.00	206.61
586.00	206.90
587.00	208.06
588.00	207.39
589.00	208.24
590.00	208.61
591.00	209.34
592.00	209.57
593.00	207.75
594.00	208.82
595.00	207.71
596.00	207.37
597.00	209.03
598.00	209.59
599.00	209.31
600.00	208.61
601.00	208.68
602.00	208.50
603.00	209.36
604.00	209.69
605.00	210.76
606.00	210.23
607.00	208.53
608.00	210.64
609.00	210.30
610.00	209.28
611.00	210.43
612.00	211.13
613.00	209.64
614.00	210.68
615.00	209.60
616.00	212.71
617.00	211.08
618.00	213.02
619.00	213.10
620.00	212.54
621.00	213.53
622.00	213.14
623.00	213.13
624.00	214.24
625.00	215.98
626.00	215.96
627.00	218.55
628.00	216.10
629.00	215.81
630.00	215.51
631.00	217.67
632.00	217.65
633.00	215.96
634.00	217.89
635.00	218.62
636.00	217.37
637.00	218.66
638.00	218.55
639.00	217.79
640.00	217.56
641.00	217.98
642.00	216.54
643.00	216.89
644.00	216.04
645.00	217.28
646.00	216.67
647.00	216.36
648.00	215.11
649.00	214.67
650.00	213.40
651.00	212.31
652.00	212.48
653.00	212.57
654.00	212.27
655.00	212.27
656.00	211.07
657.00	210.08
658.00	212.37
659.00	208.45
660.00	209.46
661.00	207.82
662.00	207.69
663.00	207.53
664.00	207.70
665.00	207.44
666.00	207.34
667.00	205.33
668.00	208.93
669.00	205.60
670.00	205.24
671.00	203.89
672.00	203.71
673.00	202.67
674.00	204.74
675.00	204.58
676.00	204.67
677.00	202.86
678.00	201.67
679.00	201.48
680.00	201.01
681.00	202.87
682.00	202.94
683.00	199.84
684.00	200.66
685.00	199.71
686.00	200.77
687.00	199.88
688.00	198.39
689.00	196.65
690.00	198.34
691.00	196.43
692.00	196.50
693.00	198.29
694.00	195.76
695.00	194.95
696.00	195.82
697.00	195.05
698.00	193.59
699.00	192.91
700.00	192.72
701.00	191.59
702.00	190.01
703.00	195.85
704.00	188.61
705.00	187.73
706.00	188.60
707.00	184.96
708.00	184.44
709.00	183.52
710.00	182.04
711.00	181.19
712.00	178.65
713.00	178.01
714.00	176.62
715.00	175.79
716.00	175.87
717.00	174.13
718.00	172.62
719.00	170.77
720.00	169.53
721.00	168.80
722.00	169.36
723.00	168.36
724.00	166.78
725.00	165.41
726.00	165.13
727.00	163.24
728.00	162.42
729.00	161.02
730.00	161.74
731.00	160.63
732.00	162.56
733.00	159.48
734.00	159.45
735.00	158.11
736.00	157.72
737.00	156.98
738.00	157.57
739.00	156.25
740.00	157.19
741.00	155.50
742.00	155.55
743.00	155.66
744.00	156.16
745.00	155.94
746.00	155.86
747.00	154.99
748.00	155.21
749.00	154.08
750.00	154.90
751.00	154.78
752.00	154.90
753.00	154.38
754.00	155.78
755.00	153.75
756.00	153.75
757.00	154.22
758.00	156.07
759.00	153.59
760.00	153.74
761.00	153.85
762.00	152.34
763.00	154.72
764.00	153.27
765.00	155.48
766.00	154.43
767.00	154.16
768.00	153.89
769.00	152.99
770.00	153.76
771.00	153.70
772.00	152.53
773.00	154.00
774.00	154.05
775.00	154.75
776.00	152.47
777.00	153.32
778.00	153.54
779.00	152.82
780.00	153.24
781.00	153.60
782.00	153.91
783.00	154.12
784.00	152.85
785.00	155.15
786.00	154.58
787.00	155.02
788.00	152.79
789.00	154.29
790.00	155.49
791.00	152.32
792.00	153.79
793.00	154.09
794.00	153.34
795.00	152.73
796.00	154.94
797.00	152.77
798.00	154.15
799.00	153.55
800.00	153.45
801.00	154.44
802.00	152.51
803.00	153.81
804.00	154.58
805.00	153.80
806.00	153.12
807.00	153.56
808.00	151.97
809.00	153.32
810.00	154.46
811.00	153.99
812.00	153.66
813.00	155.15
814.00	153.41
815.00	154.99
816.00	153.88
817.00	154.91
818.00	153.37
819.00	153.08
820.00	153.17
821.00	152.96
822.00	154.69
823.00	153.68
824.00	152.65
825.00	154.67
826.00	154.21
827.00	154.21
828.00	154.93
829.00	153.45
830.00	155.33
831.00	154.00
832.00	153.86
833.00	153.35
834.00	153.00
835.00	154.45
836.00	153.53
837.00	152.77
838.00	154.12
839.00	153.32
840.00	153.34
841.00	153.71
842.00	154.36
843.00	151.94
844.00	154.27
845.00	154.94
846.00	153.40
847.00	153.01
848.00	153.08
849.00	153.08
850.00	164.59
851.00	152.59
852.00	152.57
853.00	154.16
854.00	154.99
855.00	156.01
856.00	154.18
857.00	154.83
858.00	155.24
859.00	153.30
860.00	154.05
861.00	153.69
862.00	153.54
863.00	153.57
864.00	153.33
865.00	153.46
866.00	152.81
867.00	154.23
868.00	155.94
869.00	153.96
870.00	154.00
871.00	153.62
872.00	155.40
873.00	154.57
874.00	153.86
875.00	153.28
876.00	153.10
877.00	152.91
878.00	154.24
879.00	152.58
880.00	154.51
881.00	154.15
882.00	152.47
883.00	153.37
884.00	154.22
885.00	153.50
886.00	152.57
887.00	153.83
888.00	153.38
889.00	152.13
890.00	154.30
891.00	154.36
892.00	156.50
893.00	153.76
894.00	153.84
895.00	154.23
896.00	155.03
897.00	154.48
898.00	153.23
899.00	154.77
900.00	153.04
901.00	155.40
902.00	152.56
903.00	153.98
904.00	152.96
905.00	156.94
906.00	155.81
907.00	154.07
908.00	153.58
909.00	153.18
910.00	155.62
911.00	154.66
912.00	156.38
913.00	153.15
914.00	153.48
915.00	155.09
916.00	154.20
917.00	153.03
918.00	153.92
919.00	160.63
920.00	154.65
921.00	153.87
922.00	153.03
923.00	153.02
924.00	154.68
925.00	158.12
926.00	155.51
927.00	152.96
928.00	155.66
929.00	152.48
930.00	153.71
931.00	155.51
932.00	153.75
933.00	156.81
934.00	153.67
935.00	153.44
936.00	153.76
937.00	154.78
938.00	155.94
939.00	154.07
940.00	154.30
941.00	155.02
942.00	156.91
943.00	154.90
944.00	154.10
945.00	154.28
946.00	154.78
947.00	153.63
948.00	153.63
949.00	153.21
950.00	154.54
951.00	154.40
952.00	154.50
953.00	154.02
954.00	154.26
955.00	153.47
956.00	155.59
957.00	154.47
958.00	154.00
959.00	154.43
960.00	155.75
961.00	155.15
962.00	156.18
963.00	153.73
964.00	154.13
965.00	154.36
966.00	155.07
967.00	154.34
968.00	156.46
969.00	157.33
970.00	154.34
971.00	153.31
972.00	157.08
973.00	154.53
974.00	155.01
975.00	153.65
976.00	154.96
977.00	153.97
978.00	153.99
979.00	154.44
980.00	154.38
981.00	153.40
982.00	154.76
983.00	153.06
984.00	149.33
985.00	154.19
986.00	154.22
987.00	154.99
988.00	155.38
989.00	154.17
990.00	154.24
991.00	154.28
992.00	154.54
993.00	154.85
994.00	153.29
995.00	154.29
996.00	156.16
997.00	157.41
998.00	154.73
999.00	155.36
1000.00	153.22
>>>>>End Processed Spectral Data<<<<<
