SpectraSuite Data File
++++++++++++++++++++++++++++++++++++
Date: Mon Jun 22 13:27:58 PDT 2026
User: Stephen Warren
Dark Spectrum Present: No
Reference Spectrum Present: No
Number of Sampled Component Spectra: 1
Spectrometers: USB2G24357
Integration Time (usec): 48000 (USB2G24357)
Spectra Averaged: 200 (USB2G24357)
Boxcar Smoothing: 0 (USB2G24357)
Correct for Electrical Dark: No (USB2G24357)
Strobe/Lamp Enabled: No (USB2G24357)
Correct for Detector Non-linearity: No (USB2G24357)
Correct for Stray Light: No (USB2G24357)
Number of Pixels in Processed Spectrum: 651
>>>>>Begin Processed Spectral Data<<<<<
350.00	150.66
351.00	151.28
352.00	152.24
353.00	152.93
354.00	152.43
355.00	152.29
356.00	151.57
357.00	151.62
358.00	154.12
359.00	152.22
360.00	151.56
361.00	153.07
362.00	152.57
363.00	151.67
364.00	152.72
365.00	152.28
366.00	152.83
367.00	154.16
368.00	153.52
369.00	153.85
370.00	153.34
371.00	153.72
372.00	153.47
373.00	154.58
374.00	152.31
375.00	152.52
376.00	152.40
377.00	153.75
378.00	153.87
379.00	153.92
380.00	152.77
381.00	154.37
382.00	153.60
383.00	152.93
384.00	153.09
385.00	153.11
386.00	153.46
387.00	153.01
388.00	153.24
389.00	153.73
390.00	153.26
391.00	153.23
392.00	154.22
393.00	155.00
394.00	154.02
395.00	157.07
396.00	153.73
397.00	153.59
398.00	154.48
399.00	154.25
400.00	153.91
401.00	153.48
402.00	154.39
403.00	154.68
404.00	153.42
405.00	154.57
406.00	154.79
407.00	155.02
408.00	154.44
409.00	155.71
410.00	154.61
411.00	154.15
412.00	155.80
413.00	156.66
414.00	156.79
415.00	156.32
416.00	157.08
417.00	156.24
418.00	156.47
419.00	159.08
420.00	157.98
421.00	158.16
422.00	157.09
423.00	156.84
424.00	157.12
425.00	158.26
426.00	157.65
427.00	159.54
428.00	158.31
429.00	158.69
430.00	158.71
431.00	158.90
432.00	159.27
433.00	159.99
434.00	161.61
435.00	160.98
436.00	161.26
437.00	162.01
438.00	163.00
439.00	163.46
440.00	163.74
441.00	163.56
442.00	164.19
443.00	166.31
444.00	164.79
445.00	165.20
446.00	165.41
447.00	165.73
448.00	166.18
449.00	167.79
450.00	167.30
451.00	166.25
452.00	166.31
453.00	167.00
454.00	167.52
455.00	169.02
456.00	168.69
457.00	170.51
458.00	170.52
459.00	171.14
460.00	170.79
461.00	172.29
462.00	174.28
463.00	174.25
464.00	176.18
465.00	176.38
466.00	176.87
467.00	180.01
468.00	179.45
469.00	179.75
470.00	181.31
471.00	180.26
472.00	180.37
473.00	182.03
474.00	182.55
475.00	183.52
476.00	183.77
477.00	185.18
478.00	185.59
479.00	187.05
480.00	187.63
481.00	187.06
482.00	189.92
483.00	189.71
484.00	192.27
485.00	194.37
486.00	195.07
487.00	196.31
488.00	196.26
489.00	199.66
490.00	201.33
491.00	202.50
492.00	205.61
493.00	207.01
494.00	208.57
495.00	208.86
496.00	211.91
497.00	214.28
498.00	216.16
499.00	214.91
500.00	215.69
501.00	215.25
502.00	216.33
503.00	216.96
504.00	218.39
505.00	217.76
506.00	217.88
507.00	217.64
508.00	220.70
509.00	217.21
510.00	218.34
511.00	217.03
512.00	217.45
513.00	217.98
514.00	218.79
515.00	218.34
516.00	218.70
517.00	219.05
518.00	218.30
519.00	221.68
520.00	220.26
521.00	220.46
522.00	221.81
523.00	222.50
524.00	222.75
525.00	223.58
526.00	224.94
527.00	225.86
528.00	227.23
529.00	230.35
530.00	228.27
531.00	230.46
532.00	231.68
533.00	234.84
534.00	236.32
535.00	239.43
536.00	238.49
537.00	239.85
538.00	239.58
539.00	243.81
540.00	243.44
541.00	241.87
542.00	242.81
543.00	242.69
544.00	241.99
545.00	244.08
546.00	243.02
547.00	248.19
548.00	245.03
549.00	242.93
550.00	244.20
551.00	243.96
552.00	241.42
553.00	242.62
554.00	243.18
555.00	244.19
556.00	244.01
557.00	243.41
558.00	243.76
559.00	245.37
560.00	246.21
561.00	243.56
562.00	246.42
563.00	247.36
564.00	247.87
565.00	249.81
566.00	249.15
567.00	250.22
568.00	250.93
569.00	252.05
570.00	254.27
571.00	254.27
572.00	257.55
573.00	256.97
574.00	259.11
575.00	261.06
576.00	261.22
577.00	262.30
578.00	268.52
579.00	266.76
580.00	270.04
581.00	269.82
582.00	271.01
583.00	273.10
584.00	275.45
585.00	274.83
586.00	275.88
587.00	275.89
588.00	275.49
589.00	277.02
590.00	277.15
591.00	276.64
592.00	276.93
593.00	275.18
594.00	276.15
595.00	275.02
596.00	273.79
597.00	275.11
598.00	275.33
599.00	274.38
600.00	273.81
601.00	272.83
602.00	273.22
603.00	274.01
604.00	274.01
605.00	275.16
606.00	274.61
607.00	272.59
608.00	274.92
609.00	274.93
610.00	274.10
611.00	274.80
612.00	276.36
613.00	274.05
614.00	276.81
615.00	275.74
616.00	278.18
617.00	276.76
618.00	279.17
619.00	278.90
620.00	278.50
621.00	280.89
622.00	281.08
623.00	280.21
624.00	282.37
625.00	284.64
626.00	284.90
627.00	288.45
628.00	286.24
629.00	286.72
630.00	286.68
631.00	289.53
632.00	288.57
633.00	287.95
634.00	289.49
635.00	290.62
636.00	289.07
637.00	290.45
638.00	290.92
639.00	289.26
640.00	289.05
641.00	289.01
642.00	287.93
643.00	287.00
644.00	285.60
645.00	286.61
646.00	285.15
647.00	284.23
648.00	281.44
649.00	280.83
650.00	278.99
651.00	277.09
652.00	276.78
653.00	276.42
654.00	275.42
655.00	274.58
656.00	273.11
657.00	271.09
658.00	272.54
659.00	267.81
660.00	268.84
661.00	266.82
662.00	265.30
663.00	264.49
664.00	264.62
665.00	263.24
666.00	262.46
667.00	260.66
668.00	263.06
669.00	259.77
670.00	258.82
671.00	255.39
672.00	254.39
673.00	253.25
674.00	256.19
675.00	254.87
676.00	254.76
677.00	253.15
678.00	250.44
679.00	250.57
680.00	249.95
681.00	251.06
682.00	250.66
683.00	246.74
684.00	247.11
685.00	245.60
686.00	246.62
687.00	244.52
688.00	242.38
689.00	241.38
690.00	241.52
691.00	239.41
692.00	239.26
693.00	239.94
694.00	237.50
695.00	236.24
696.00	235.68
697.00	234.02
698.00	232.86
699.00	230.31
700.00	229.20
701.00	227.32
702.00	224.66
703.00	230.05
704.00	221.35
705.00	219.47
706.00	219.46
707.00	214.94
708.00	212.94
709.00	210.85
710.00	208.16
711.00	206.57
712.00	202.22
713.00	200.51
714.00	198.30
715.00	196.06
716.00	195.29
717.00	191.97
718.00	190.20
719.00	186.51
720.00	184.48
721.00	182.64
722.00	182.01
723.00	180.24
724.00	177.72
725.00	175.46
726.00	174.20
727.00	172.08
728.00	170.44
729.00	168.30
730.00	168.27
731.00	166.44
732.00	167.90
733.00	164.55
734.00	163.74
735.00	162.12
736.00	160.77
737.00	159.98
738.00	160.17
739.00	158.12
740.00	159.27
741.00	156.90
742.00	157.15
743.00	157.20
744.00	157.23
745.00	157.13
746.00	156.75
747.00	155.72
748.00	156.07
749.00	154.98
750.00	155.50
751.00	155.39
752.00	155.14
753.00	155.07
754.00	156.39
755.00	153.75
756.00	154.07
757.00	154.92
758.00	156.31
759.00	154.15
760.00	153.51
761.00	153.58
762.00	152.60
763.00	154.46
764.00	152.92
765.00	155.40
766.00	154.57
767.00	154.20
768.00	153.74
769.00	153.11
770.00	153.35
771.00	153.48
772.00	152.60
773.00	153.70
774.00	153.58
775.00	154.47
776.00	152.40
777.00	152.88
778.00	153.73
779.00	152.14
780.00	153.05
781.00	153.30
782.00	153.70
783.00	153.88
784.00	152.53
785.00	154.63
786.00	154.41
787.00	155.06
788.00	152.43
789.00	153.80
790.00	155.05
791.00	152.03
792.00	153.39
793.00	153.71
794.00	153.08
795.00	152.47
796.00	154.02
797.00	151.71
798.00	153.97
799.00	153.26
800.00	152.81
801.00	153.72
802.00	151.84
803.00	153.27
804.00	154.07
805.00	153.30
806.00	153.03
807.00	153.07
808.00	152.05
809.00	152.72
810.00	153.84
811.00	153.36
812.00	152.88
813.00	154.47
814.00	153.20
815.00	154.15
816.00	153.40
817.00	154.42
818.00	152.82
819.00	152.78
820.00	152.78
821.00	152.45
822.00	153.91
823.00	153.09
824.00	152.33
825.00	154.08
826.00	153.77
827.00	153.53
828.00	154.23
829.00	152.78
830.00	154.81
831.00	153.60
832.00	153.17
833.00	152.98
834.00	152.34
835.00	153.99
836.00	153.05
837.00	152.68
838.00	153.45
839.00	152.73
840.00	152.53
841.00	153.55
842.00	153.81
843.00	151.47
844.00	153.62
845.00	154.05
846.00	152.85
847.00	152.26
848.00	152.65
849.00	152.99
850.00	163.69
851.00	152.17
852.00	152.15
853.00	153.42
854.00	154.12
855.00	155.60
856.00	153.63
857.00	154.40
858.00	155.05
859.00	153.08
860.00	153.65
861.00	153.57
862.00	152.75
863.00	152.86
864.00	152.94
865.00	152.65
866.00	152.35
867.00	153.53
868.00	155.08
869.00	153.56
870.00	153.68
871.00	153.16
872.00	155.08
873.00	154.22
874.00	153.57
875.00	152.55
876.00	152.73
877.00	152.90
878.00	153.29
879.00	152.03
880.00	153.93
881.00	153.75
882.00	151.62
883.00	152.77
884.00	153.73
885.00	152.79
886.00	152.28
887.00	153.11
888.00	152.80
889.00	151.94
890.00	153.91
891.00	153.61
892.00	155.66
893.00	153.34
894.00	153.29
895.00	153.52
896.00	154.58
897.00	154.03
898.00	152.67
899.00	154.17
900.00	152.43
901.00	154.85
902.00	152.21
903.00	153.57
904.00	152.48
905.00	156.17
906.00	155.22
907.00	153.60
908.00	153.30
909.00	152.47
910.00	155.48
911.00	154.87
912.00	155.83
913.00	152.31
914.00	153.08
915.00	154.82
916.00	153.68
917.00	152.31
918.00	153.60
919.00	155.29
920.00	154.18
921.00	153.71
922.00	152.42
923.00	152.70
924.00	153.86
925.00	157.78
926.00	154.85
927.00	152.42
928.00	155.01
929.00	151.82
930.00	153.20
931.00	155.35
932.00	153.42
933.00	156.20
934.00	153.19
935.00	152.47
936.00	152.94
937.00	155.04
938.00	154.89
939.00	153.67
940.00	153.22
941.00	154.54
942.00	156.25
943.00	153.97
944.00	154.07
945.00	153.66
946.00	154.13
947.00	152.81
948.00	153.39
949.00	152.29
950.00	154.10
951.00	153.44
952.00	153.72
953.00	153.38
954.00	153.35
955.00	153.74
956.00	155.24
957.00	153.96
958.00	153.27
959.00	154.00
960.00	155.33
961.00	154.04
962.00	155.67
963.00	152.91
964.00	153.92
965.00	153.80
966.00	154.56
967.00	154.00
968.00	156.02
969.00	156.74
970.00	153.36
971.00	152.38
972.00	156.33
973.00	154.27
974.00	154.65
975.00	152.93
976.00	154.41
977.00	153.68
978.00	153.84
979.00	154.08
980.00	153.55
981.00	153.43
982.00	154.34
983.00	152.30
984.00	148.55
985.00	153.76
986.00	153.81
987.00	154.17
988.00	154.55
989.00	153.65
990.00	153.58
991.00	153.86
992.00	154.14
993.00	154.61
994.00	152.90
995.00	154.00
996.00	155.62
997.00	157.06
998.00	154.48
999.00	154.92
1000.00	153.10
>>>>>End Processed Spectral Data<<<<<
