SpectraSuite Data File
++++++++++++++++++++++++++++++++++++
Date: Tue Aug 04 10:56:36 PDT 2026
User: Stephen Warren
Dark Spectrum Present: No
Reference Spectrum Present: No
Number of Sampled Component Spectra: 1
Spectrometers: USB2G24357
Integration Time (usec): 48000 (USB2G24357)
Spectra Averaged: 200 (USB2G24357)
Boxcar Smoothing: 0 (USB2G24357)
Correct for Electrical Dark: No (USB2G24357)
Strobe/Lamp Enabled: No (USB2G24357)
Correct for Detector Non-linearity: No (USB2G24357)
Correct for Stray Light: No (USB2G24357)
Number of Pixels in Processed Spectrum: 651
>>>>>Begin Processed Spectral Data<<<<<
350.00	165.56
351.00	165.74
352.00	166.45
353.00	166.44
354.00	166.40
355.00	166.62
356.00	166.33
357.00	165.90
358.00	167.78
359.00	166.70
360.00	165.96
361.00	167.25
362.00	166.59
363.00	166.34
364.00	167.09
365.00	166.56
366.00	166.99
367.00	167.80
368.00	167.39
369.00	167.74
370.00	167.18
371.00	167.77
372.00	167.71
373.00	168.61
374.00	167.33
375.00	166.75
376.00	166.72
377.00	167.68
378.00	168.19
379.00	167.76
380.00	166.77
381.00	167.92
382.00	167.31
383.00	167.05
384.00	167.34
385.00	166.96
386.00	167.54
387.00	167.48
388.00	167.13
389.00	167.73
390.00	167.22
391.00	167.67
392.00	167.94
393.00	168.60
394.00	167.76
395.00	170.59
396.00	167.67
397.00	167.33
398.00	167.96
399.00	167.82
400.00	167.85
401.00	167.18
402.00	167.97
403.00	168.13
404.00	167.11
405.00	167.94
406.00	167.85
407.00	168.36
408.00	168.17
409.00	168.27
410.00	167.76
411.00	167.23
412.00	168.73
413.00	168.85
414.00	168.60
415.00	168.42
416.00	168.86
417.00	168.02
418.00	167.91
419.00	169.82
420.00	169.19
421.00	169.46
422.00	168.02
423.00	168.00
424.00	168.02
425.00	168.60
426.00	168.42
427.00	169.35
428.00	168.29
429.00	168.18
430.00	168.30
431.00	167.75
432.00	168.34
433.00	168.72
434.00	169.59
435.00	168.93
436.00	168.57
437.00	168.99
438.00	169.78
439.00	169.33
440.00	169.63
441.00	168.92
442.00	169.19
443.00	170.92
444.00	169.21
445.00	169.44
446.00	169.69
447.00	169.52
448.00	169.88
449.00	170.99
450.00	170.67
451.00	170.10
452.00	169.68
453.00	169.87
454.00	170.28
455.00	170.37
456.00	170.03
457.00	171.31
458.00	170.59
459.00	170.84
460.00	170.15
461.00	170.78
462.00	171.52
463.00	170.72
464.00	171.94
465.00	171.36
466.00	171.46
467.00	173.48
468.00	172.76
469.00	172.54
470.00	173.22
471.00	172.70
472.00	172.88
473.00	173.33
474.00	173.45
475.00	173.42
476.00	173.30
477.00	173.72
478.00	174.18
479.00	174.86
480.00	174.36
481.00	173.43
482.00	174.83
483.00	174.06
484.00	175.08
485.00	176.17
486.00	175.27
487.00	175.38
488.00	174.71
489.00	175.81
490.00	176.63
491.00	176.11
492.00	177.00
493.00	177.55
494.00	177.94
495.00	178.11
496.00	178.47
497.00	179.59
498.00	180.18
499.00	179.54
500.00	180.31
501.00	179.45
502.00	180.57
503.00	181.00
504.00	181.96
505.00	181.22
506.00	181.66
507.00	181.87
508.00	183.89
509.00	181.73
510.00	182.69
511.00	181.64
512.00	181.47
513.00	182.02
514.00	181.52
515.00	181.67
516.00	181.13
517.00	181.70
518.00	180.78
519.00	182.45
520.00	182.72
521.00	181.81
522.00	182.08
523.00	182.69
524.00	182.35
525.00	182.12
526.00	182.88
527.00	183.44
528.00	183.43
529.00	184.65
530.00	183.26
531.00	184.02
532.00	184.18
533.00	184.81
534.00	184.72
535.00	185.47
536.00	184.64
537.00	185.68
538.00	185.23
539.00	187.28
540.00	186.98
541.00	186.55
542.00	186.92
543.00	187.69
544.00	187.70
545.00	188.94
546.00	189.30
547.00	192.32
548.00	190.03
549.00	188.26
550.00	189.20
551.00	189.32
552.00	187.84
553.00	187.60
554.00	188.02
555.00	188.55
556.00	188.74
557.00	188.20
558.00	188.15
559.00	189.70
560.00	190.57
561.00	188.25
562.00	189.54
563.00	189.24
564.00	189.30
565.00	190.37
566.00	189.56
567.00	190.26
568.00	190.18
569.00	190.14
570.00	191.06
571.00	190.80
572.00	191.81
573.00	191.00
574.00	191.24
575.00	191.82
576.00	191.75
577.00	192.43
578.00	194.70
579.00	194.18
580.00	195.13
581.00	194.91
582.00	194.98
583.00	195.52
584.00	196.45
585.00	196.79
586.00	197.18
587.00	197.44
588.00	196.65
589.00	197.98
590.00	198.52
591.00	198.68
592.00	199.35
593.00	198.04
594.00	199.31
595.00	198.24
596.00	197.82
597.00	199.04
598.00	199.60
599.00	199.58
600.00	198.48
601.00	198.41
602.00	198.26
603.00	198.45
604.00	198.31
605.00	199.22
606.00	198.35
607.00	197.41
608.00	198.10
609.00	198.34
610.00	197.33
611.00	197.89
612.00	198.00
613.00	197.53
614.00	197.91
615.00	197.42
616.00	198.73
617.00	197.73
618.00	199.31
619.00	198.52
620.00	198.17
621.00	199.21
622.00	199.18
623.00	198.57
624.00	198.89
625.00	200.28
626.00	199.71
627.00	201.32
628.00	199.87
629.00	200.08
630.00	199.80
631.00	201.03
632.00	200.93
633.00	200.01
634.00	201.53
635.00	202.14
636.00	200.96
637.00	201.90
638.00	202.60
639.00	201.81
640.00	202.07
641.00	202.23
642.00	201.89
643.00	202.03
644.00	202.12
645.00	202.52
646.00	202.11
647.00	202.19
648.00	201.14
649.00	201.40
650.00	200.63
651.00	200.36
652.00	199.75
653.00	200.01
654.00	200.52
655.00	200.54
656.00	199.86
657.00	199.27
658.00	200.21
659.00	197.50
660.00	198.44
661.00	197.08
662.00	196.81
663.00	197.18
664.00	197.39
665.00	197.12
666.00	196.35
667.00	195.60
668.00	198.01
669.00	195.38
670.00	195.59
671.00	195.27
672.00	194.58
673.00	193.78
674.00	195.24
675.00	194.42
676.00	195.17
677.00	193.73
678.00	193.27
679.00	193.25
680.00	193.07
681.00	194.05
682.00	194.37
683.00	192.11
684.00	192.64
685.00	192.03
686.00	192.91
687.00	192.26
688.00	191.13
689.00	190.93
690.00	191.24
691.00	190.29
692.00	190.90
693.00	191.38
694.00	190.41
695.00	189.66
696.00	190.04
697.00	190.14
698.00	189.57
699.00	189.28
700.00	189.36
701.00	189.14
702.00	188.43
703.00	192.36
704.00	188.03
705.00	187.85
706.00	188.81
707.00	186.51
708.00	186.62
709.00	186.26
710.00	185.61
711.00	185.40
712.00	184.15
713.00	184.19
714.00	183.45
715.00	182.89
716.00	182.65
717.00	182.13
718.00	181.43
719.00	179.88
720.00	179.10
721.00	178.51
722.00	179.11
723.00	178.19
724.00	177.42
725.00	176.25
726.00	176.30
727.00	175.11
728.00	174.18
729.00	173.55
730.00	173.50
731.00	172.82
732.00	174.33
733.00	172.02
734.00	171.91
735.00	171.04
736.00	170.25
737.00	169.85
738.00	170.48
739.00	169.01
740.00	169.94
741.00	168.78
742.00	168.64
743.00	168.51
744.00	169.02
745.00	168.59
746.00	168.52
747.00	167.77
748.00	168.33
749.00	167.37
750.00	167.88
751.00	167.94
752.00	167.65
753.00	167.45
754.00	168.70
755.00	166.93
756.00	167.48
757.00	167.56
758.00	168.63
759.00	166.62
760.00	167.65
761.00	167.03
762.00	166.60
763.00	167.74
764.00	166.74
765.00	168.50
766.00	167.88
767.00	167.56
768.00	167.02
769.00	166.56
770.00	166.84
771.00	167.09
772.00	166.01
773.00	167.26
774.00	167.07
775.00	167.91
776.00	166.15
777.00	166.60
778.00	167.25
779.00	166.14
780.00	166.90
781.00	166.87
782.00	167.23
783.00	169.15
784.00	166.32
785.00	167.72
786.00	167.38
787.00	167.99
788.00	166.07
789.00	167.15
790.00	167.91
791.00	166.11
792.00	166.96
793.00	167.36
794.00	166.39
795.00	166.47
796.00	168.02
797.00	165.76
798.00	167.40
799.00	166.78
800.00	166.96
801.00	167.41
802.00	166.28
803.00	166.73
804.00	167.48
805.00	166.67
806.00	166.80
807.00	167.03
808.00	166.13
809.00	166.65
810.00	167.83
811.00	166.73
812.00	166.81
813.00	168.01
814.00	167.09
815.00	168.12
816.00	166.71
817.00	167.82
818.00	166.74
819.00	166.80
820.00	166.57
821.00	166.65
822.00	167.80
823.00	166.28
824.00	166.55
825.00	167.37
826.00	167.41
827.00	167.37
828.00	167.66
829.00	166.58
830.00	168.22
831.00	167.39
832.00	167.34
833.00	166.74
834.00	166.35
835.00	167.52
836.00	166.76
837.00	166.32
838.00	166.85
839.00	166.72
840.00	166.47
841.00	166.95
842.00	167.58
843.00	165.88
844.00	166.88
845.00	167.14
846.00	166.46
847.00	166.51
848.00	166.80
849.00	166.36
850.00	174.44
851.00	166.08
852.00	166.08
853.00	167.54
854.00	167.85
855.00	168.45
856.00	167.61
857.00	168.08
858.00	168.17
859.00	166.60
860.00	167.45
861.00	167.19
862.00	166.65
863.00	166.83
864.00	166.77
865.00	167.16
866.00	166.26
867.00	167.44
868.00	168.42
869.00	167.29
870.00	167.57
871.00	166.75
872.00	168.18
873.00	167.60
874.00	167.25
875.00	166.42
876.00	166.86
877.00	166.63
878.00	167.35
879.00	165.83
880.00	167.27
881.00	167.35
882.00	165.92
883.00	166.80
884.00	167.40
885.00	166.74
886.00	165.85
887.00	166.79
888.00	166.56
889.00	165.68
890.00	167.43
891.00	167.55
892.00	169.33
893.00	166.84
894.00	166.95
895.00	167.19
896.00	167.65
897.00	167.11
898.00	166.73
899.00	167.86
900.00	166.55
901.00	168.12
902.00	166.08
903.00	167.25
904.00	166.54
905.00	169.53
906.00	168.29
907.00	167.62
908.00	166.79
909.00	166.82
910.00	168.59
911.00	167.56
912.00	169.05
913.00	166.56
914.00	166.68
915.00	168.19
916.00	167.18
917.00	166.66
918.00	167.11
919.00	172.07
920.00	167.31
921.00	167.45
922.00	166.43
923.00	166.16
924.00	167.53
925.00	170.13
926.00	168.53
927.00	166.47
928.00	168.84
929.00	165.88
930.00	167.16
931.00	168.10
932.00	167.13
933.00	169.48
934.00	167.04
935.00	166.50
936.00	166.74
937.00	168.27
938.00	168.39
939.00	167.17
940.00	167.30
941.00	168.11
942.00	169.25
943.00	167.83
944.00	167.52
945.00	167.34
946.00	168.11
947.00	166.83
948.00	166.92
949.00	166.29
950.00	167.50
951.00	167.31
952.00	167.90
953.00	167.42
954.00	167.22
955.00	166.72
956.00	168.63
957.00	167.41
958.00	167.17
959.00	167.69
960.00	168.81
961.00	167.64
962.00	168.83
963.00	166.94
964.00	167.46
965.00	167.28
966.00	167.99
967.00	166.97
968.00	168.89
969.00	169.82
970.00	167.02
971.00	166.59
972.00	169.07
973.00	167.30
974.00	167.75
975.00	167.06
976.00	167.84
977.00	167.24
978.00	167.15
979.00	167.58
980.00	167.55
981.00	167.21
982.00	167.59
983.00	166.29
984.00	164.13
985.00	166.77
986.00	167.25
987.00	167.51
988.00	168.29
989.00	167.53
990.00	167.12
991.00	167.55
992.00	167.45
993.00	167.81
994.00	166.89
995.00	167.60
996.00	168.84
997.00	168.32
998.00	167.42
999.00	168.19
1000.00	166.82
>>>>>End Processed Spectral Data<<<<<
