SpectraSuite Data File
++++++++++++++++++++++++++++++++++++
Date: Tue Aug 04 11:00:13 PDT 2026
User: Stephen Warren
Dark Spectrum Present: No
Reference Spectrum Present: No
Number of Sampled Component Spectra: 1
Spectrometers: USB2G24357
Integration Time (usec): 48000 (USB2G24357)
Spectra Averaged: 200 (USB2G24357)
Boxcar Smoothing: 0 (USB2G24357)
Correct for Electrical Dark: No (USB2G24357)
Strobe/Lamp Enabled: No (USB2G24357)
Correct for Detector Non-linearity: No (USB2G24357)
Correct for Stray Light: No (USB2G24357)
Number of Pixels in Processed Spectrum: 651
>>>>>Begin Processed Spectral Data<<<<<
350.00	166.51
351.00	166.93
352.00	167.43
353.00	168.16
354.00	168.08
355.00	167.79
356.00	167.34
357.00	167.55
358.00	169.14
359.00	167.82
360.00	167.41
361.00	168.65
362.00	168.15
363.00	167.82
364.00	167.99
365.00	168.35
366.00	168.48
367.00	168.91
368.00	168.64
369.00	168.74
370.00	168.58
371.00	169.12
372.00	168.75
373.00	169.91
374.00	168.26
375.00	168.03
376.00	168.37
377.00	169.18
378.00	169.38
379.00	168.63
380.00	168.46
381.00	169.39
382.00	168.70
383.00	167.99
384.00	168.81
385.00	168.85
386.00	168.86
387.00	169.19
388.00	168.25
389.00	169.17
390.00	168.58
391.00	168.64
392.00	169.68
393.00	169.75
394.00	169.25
395.00	171.86
396.00	168.94
397.00	168.86
398.00	169.21
399.00	169.45
400.00	169.21
401.00	168.98
402.00	169.40
403.00	169.65
404.00	168.79
405.00	169.64
406.00	169.35
407.00	170.06
408.00	169.46
409.00	170.38
410.00	169.36
411.00	168.96
412.00	170.18
413.00	170.73
414.00	170.46
415.00	170.57
416.00	170.94
417.00	170.41
418.00	170.64
419.00	172.00
420.00	171.21
421.00	171.41
422.00	171.22
423.00	171.04
424.00	171.12
425.00	171.50
426.00	171.26
427.00	172.14
428.00	171.19
429.00	171.42
430.00	171.51
431.00	171.37
432.00	171.70
433.00	172.34
434.00	173.54
435.00	173.29
436.00	172.79
437.00	173.07
438.00	173.77
439.00	174.00
440.00	174.34
441.00	173.85
442.00	174.34
443.00	175.88
444.00	174.82
445.00	174.94
446.00	174.69
447.00	175.36
448.00	175.30
449.00	176.65
450.00	175.93
451.00	175.43
452.00	175.56
453.00	175.68
454.00	176.00
455.00	176.52
456.00	176.76
457.00	177.50
458.00	177.20
459.00	178.60
460.00	177.97
461.00	178.38
462.00	180.12
463.00	180.02
464.00	180.68
465.00	181.03
466.00	181.21
467.00	183.06
468.00	182.71
469.00	182.55
470.00	183.31
471.00	183.26
472.00	183.04
473.00	183.88
474.00	184.08
475.00	185.02
476.00	185.03
477.00	185.58
478.00	185.82
479.00	186.93
480.00	187.08
481.00	186.80
482.00	188.07
483.00	188.44
484.00	189.96
485.00	192.08
486.00	191.69
487.00	192.22
488.00	192.23
489.00	194.12
490.00	195.05
491.00	196.09
492.00	197.55
493.00	198.22
494.00	200.01
495.00	199.66
496.00	201.64
497.00	203.17
498.00	204.75
499.00	203.37
500.00	204.54
501.00	203.81
502.00	203.92
503.00	205.08
504.00	205.77
505.00	205.22
506.00	205.56
507.00	205.76
508.00	207.37
509.00	205.97
510.00	206.06
511.00	205.37
512.00	206.19
513.00	206.32
514.00	206.44
515.00	206.63
516.00	206.84
517.00	207.70
518.00	206.74
519.00	209.28
520.00	208.96
521.00	209.00
522.00	210.14
523.00	210.86
524.00	210.51
525.00	211.34
526.00	212.49
527.00	212.93
528.00	213.88
529.00	215.53
530.00	214.38
531.00	215.50
532.00	216.28
533.00	217.40
534.00	218.94
535.00	219.95
536.00	220.28
537.00	221.45
538.00	221.42
539.00	223.46
540.00	223.47
541.00	223.98
542.00	223.44
543.00	223.54
544.00	222.82
545.00	223.92
546.00	224.35
547.00	227.66
548.00	225.01
549.00	223.95
550.00	224.82
551.00	224.49
552.00	223.62
553.00	224.11
554.00	224.73
555.00	225.67
556.00	225.15
557.00	225.58
558.00	225.37
559.00	227.26
560.00	227.23
561.00	225.92
562.00	228.19
563.00	228.28
564.00	228.45
565.00	230.28
566.00	230.02
567.00	231.40
568.00	231.50
569.00	232.26
570.00	234.03
571.00	234.45
572.00	236.30
573.00	236.61
574.00	238.08
575.00	239.20
576.00	239.51
577.00	239.59
578.00	243.95
579.00	243.50
580.00	245.50
581.00	245.57
582.00	246.45
583.00	246.86
584.00	248.42
585.00	248.36
586.00	248.82
587.00	249.18
588.00	249.28
589.00	250.12
590.00	250.27
591.00	249.70
592.00	250.18
593.00	249.20
594.00	249.57
595.00	248.85
596.00	248.50
597.00	248.80
598.00	249.15
599.00	248.58
600.00	247.86
601.00	247.81
602.00	247.25
603.00	248.20
604.00	248.03
605.00	249.19
606.00	248.13
607.00	247.33
608.00	248.70
609.00	247.90
610.00	247.71
611.00	248.43
612.00	249.64
613.00	248.39
614.00	249.28
615.00	248.52
616.00	250.61
617.00	249.40
618.00	251.43
619.00	251.34
620.00	250.90
621.00	252.69
622.00	252.41
623.00	252.28
624.00	253.87
625.00	255.10
626.00	254.93
627.00	257.41
628.00	255.62
629.00	256.48
630.00	256.13
631.00	257.70
632.00	257.33
633.00	256.60
634.00	257.70
635.00	258.31
636.00	257.12
637.00	258.47
638.00	257.94
639.00	257.85
640.00	257.61
641.00	257.58
642.00	256.54
643.00	256.08
644.00	255.91
645.00	255.58
646.00	255.17
647.00	254.47
648.00	252.90
649.00	252.64
650.00	251.02
651.00	250.00
652.00	249.41
653.00	249.13
654.00	249.21
655.00	248.05
656.00	247.52
657.00	246.60
658.00	247.04
659.00	243.87
660.00	244.42
661.00	242.91
662.00	242.24
663.00	241.33
664.00	242.10
665.00	241.23
666.00	240.24
667.00	238.66
668.00	240.96
669.00	238.75
670.00	237.22
671.00	235.82
672.00	235.44
673.00	234.81
674.00	236.55
675.00	235.42
676.00	235.77
677.00	234.48
678.00	232.65
679.00	232.58
680.00	231.63
681.00	233.19
682.00	232.50
683.00	230.46
684.00	230.42
685.00	229.80
686.00	230.45
687.00	229.10
688.00	228.28
689.00	226.44
690.00	227.13
691.00	225.63
692.00	226.02
693.00	226.35
694.00	225.03
695.00	223.86
696.00	224.07
697.00	223.11
698.00	222.48
699.00	221.05
700.00	220.86
701.00	219.26
702.00	217.67
703.00	219.65
704.00	215.99
705.00	215.72
706.00	215.27
707.00	212.49
708.00	211.07
709.00	209.97
710.00	208.27
711.00	207.19
712.00	204.32
713.00	203.11
714.00	201.76
715.00	200.22
716.00	199.24
717.00	197.34
718.00	195.69
719.00	192.72
720.00	191.77
721.00	190.20
722.00	189.79
723.00	189.00
724.00	186.31
725.00	184.79
726.00	184.01
727.00	182.47
728.00	181.40
729.00	179.54
730.00	179.81
731.00	178.48
732.00	179.11
733.00	176.64
734.00	175.99
735.00	174.99
736.00	173.73
737.00	173.39
738.00	173.47
739.00	172.09
740.00	172.56
741.00	171.36
742.00	171.44
743.00	171.04
744.00	171.52
745.00	170.88
746.00	171.08
747.00	170.24
748.00	170.33
749.00	169.80
750.00	169.87
751.00	169.92
752.00	169.85
753.00	169.28
754.00	170.80
755.00	168.94
756.00	169.01
757.00	169.59
758.00	169.98
759.00	168.45
760.00	168.98
761.00	168.52
762.00	168.16
763.00	169.37
764.00	168.29
765.00	170.04
766.00	168.98
767.00	169.21
768.00	169.15
769.00	168.26
770.00	168.62
771.00	168.41
772.00	167.41
773.00	168.73
774.00	168.59
775.00	169.32
776.00	167.66
777.00	168.11
778.00	168.56
779.00	167.46
780.00	168.17
781.00	168.34
782.00	168.46
783.00	170.55
784.00	167.44
785.00	168.94
786.00	169.17
787.00	169.57
788.00	168.04
789.00	168.65
790.00	169.26
791.00	167.57
792.00	168.36
793.00	168.88
794.00	167.92
795.00	167.50
796.00	169.33
797.00	167.56
798.00	168.41
799.00	168.21
800.00	168.08
801.00	168.70
802.00	167.61
803.00	168.22
804.00	168.71
805.00	168.35
806.00	168.21
807.00	168.17
808.00	167.21
809.00	168.03
810.00	168.91
811.00	168.87
812.00	168.41
813.00	169.29
814.00	168.24
815.00	169.37
816.00	168.23
817.00	169.13
818.00	168.30
819.00	168.09
820.00	168.29
821.00	167.48
822.00	168.64
823.00	168.03
824.00	167.56
825.00	169.13
826.00	168.43
827.00	168.34
828.00	168.83
829.00	167.85
830.00	169.03
831.00	168.78
832.00	168.62
833.00	167.92
834.00	167.39
835.00	168.65
836.00	168.55
837.00	167.72
838.00	168.77
839.00	167.90
840.00	167.97
841.00	168.57
842.00	169.21
843.00	167.60
844.00	168.40
845.00	168.86
846.00	167.92
847.00	167.62
848.00	168.18
849.00	167.89
850.00	175.53
851.00	167.83
852.00	167.60
853.00	168.43
854.00	169.21
855.00	169.65
856.00	168.66
857.00	169.28
858.00	169.63
859.00	167.88
860.00	168.62
861.00	168.66
862.00	168.22
863.00	168.05
864.00	168.04
865.00	167.74
866.00	167.76
867.00	168.63
868.00	170.03
869.00	168.60
870.00	168.75
871.00	168.18
872.00	169.41
873.00	168.79
874.00	167.84
875.00	168.33
876.00	168.26
877.00	167.80
878.00	168.47
879.00	166.89
880.00	168.92
881.00	168.73
882.00	167.25
883.00	167.81
884.00	169.18
885.00	168.05
886.00	167.49
887.00	168.22
888.00	167.81
889.00	167.34
890.00	168.58
891.00	168.28
892.00	169.99
893.00	167.92
894.00	168.42
895.00	168.79
896.00	168.73
897.00	168.48
898.00	167.78
899.00	168.84
900.00	167.63
901.00	169.51
902.00	167.47
903.00	168.45
904.00	167.36
905.00	170.36
906.00	169.65
907.00	168.59
908.00	168.11
909.00	167.62
910.00	169.79
911.00	169.26
912.00	169.97
913.00	167.88
914.00	167.99
915.00	169.43
916.00	168.67
917.00	167.74
918.00	168.45
919.00	169.79
920.00	168.72
921.00	168.59
922.00	167.43
923.00	167.77
924.00	168.91
925.00	171.45
926.00	169.75
927.00	167.99
928.00	169.68
929.00	167.44
930.00	167.75
931.00	169.53
932.00	168.58
933.00	170.24
934.00	168.54
935.00	168.32
936.00	168.01
937.00	169.20
938.00	169.83
939.00	168.20
940.00	168.23
941.00	169.21
942.00	170.29
943.00	168.77
944.00	169.11
945.00	168.21
946.00	168.87
947.00	167.88
948.00	168.11
949.00	167.88
950.00	168.58
951.00	168.71
952.00	169.02
953.00	168.72
954.00	168.63
955.00	168.21
956.00	169.45
957.00	168.93
958.00	167.99
959.00	168.87
960.00	170.00
961.00	168.88
962.00	169.99
963.00	168.28
964.00	168.48
965.00	168.40
966.00	168.90
967.00	168.74
968.00	170.67
969.00	170.71
970.00	168.31
971.00	167.87
972.00	170.65
973.00	168.72
974.00	168.94
975.00	168.26
976.00	169.08
977.00	168.59
978.00	168.25
979.00	168.87
980.00	168.63
981.00	168.64
982.00	168.97
983.00	167.63
984.00	164.91
985.00	168.37
986.00	168.47
987.00	169.17
988.00	169.37
989.00	168.45
990.00	168.89
991.00	168.33
992.00	169.13
993.00	169.37
994.00	168.09
995.00	168.86
996.00	170.02
997.00	169.56
998.00	169.33
999.00	169.47
1000.00	167.80
>>>>>End Processed Spectral Data<<<<<
