SpectraSuite Data File
++++++++++++++++++++++++++++++++++++
Date: Tue Jun 23 15:31:10 PDT 2026
User: Stephen Warren
Dark Spectrum Present: No
Reference Spectrum Present: No
Number of Sampled Component Spectra: 1
Spectrometers: USB2G24357
Integration Time (usec): 48000 (USB2G24357)
Spectra Averaged: 200 (USB2G24357)
Boxcar Smoothing: 0 (USB2G24357)
Correct for Electrical Dark: No (USB2G24357)
Strobe/Lamp Enabled: No (USB2G24357)
Correct for Detector Non-linearity: No (USB2G24357)
Correct for Stray Light: No (USB2G24357)
Number of Pixels in Processed Spectrum: 651
>>>>>Begin Processed Spectral Data<<<<<
350.00	147.54
351.00	148.35
352.00	149.35
353.00	149.98
354.00	149.72
355.00	149.49
356.00	148.52
357.00	148.96
358.00	151.25
359.00	149.42
360.00	148.74
361.00	150.41
362.00	149.41
363.00	148.99
364.00	149.57
365.00	149.16
366.00	149.84
367.00	151.21
368.00	150.67
369.00	151.30
370.00	150.23
371.00	150.68
372.00	150.22
373.00	152.11
374.00	149.89
375.00	149.67
376.00	149.17
377.00	151.19
378.00	151.76
379.00	150.71
380.00	149.75
381.00	151.45
382.00	150.37
383.00	149.66
384.00	150.13
385.00	150.24
386.00	150.63
387.00	150.56
388.00	150.42
389.00	151.61
390.00	150.87
391.00	151.01
392.00	152.24
393.00	153.23
394.00	152.96
395.00	156.91
396.00	153.62
397.00	153.64
398.00	155.25
399.00	155.48
400.00	155.90
401.00	156.09
402.00	157.71
403.00	158.65
404.00	157.37
405.00	159.30
406.00	159.38
407.00	160.46
408.00	160.95
409.00	162.65
410.00	162.67
411.00	162.91
412.00	165.92
413.00	168.28
414.00	169.79
415.00	171.50
416.00	174.05
417.00	174.37
418.00	176.20
419.00	180.86
420.00	180.96
421.00	181.22
422.00	181.50
423.00	182.64
424.00	184.75
425.00	186.99
426.00	187.60
427.00	191.09
428.00	190.93
429.00	192.72
430.00	195.57
431.00	197.29
432.00	201.13
433.00	204.32
434.00	209.53
435.00	212.43
436.00	215.58
437.00	220.31
438.00	225.55
439.00	228.32
440.00	235.29
441.00	237.96
442.00	241.08
443.00	245.81
444.00	249.07
445.00	247.76
446.00	250.16
447.00	253.20
448.00	255.35
449.00	257.47
450.00	258.79
451.00	257.51
452.00	258.64
453.00	263.73
454.00	267.52
455.00	270.59
456.00	275.87
457.00	281.31
458.00	284.79
459.00	290.53
460.00	296.15
461.00	303.02
462.00	312.23
463.00	320.47
464.00	325.14
465.00	331.91
466.00	339.08
467.00	348.77
468.00	354.68
469.00	358.86
470.00	366.13
471.00	368.60
472.00	369.03
473.00	375.07
474.00	378.06
475.00	384.91
476.00	391.03
477.00	394.73
478.00	401.44
479.00	410.57
480.00	417.58
481.00	422.11
482.00	430.60
483.00	440.85
484.00	451.35
485.00	463.76
486.00	471.35
487.00	483.06
488.00	494.80
489.00	507.49
490.00	521.53
491.00	533.80
492.00	549.65
493.00	561.86
494.00	572.67
495.00	583.32
496.00	596.64
497.00	608.16
498.00	617.18
499.00	619.56
500.00	627.27
501.00	628.33
502.00	632.22
503.00	633.60
504.00	634.58
505.00	632.61
506.00	632.61
507.00	631.66
508.00	632.90
509.00	629.48
510.00	628.78
511.00	629.34
512.00	628.23
513.00	628.13
514.00	632.86
515.00	635.37
516.00	636.67
517.00	638.60
518.00	641.50
519.00	650.54
520.00	650.12
521.00	657.34
522.00	660.71
523.00	667.72
524.00	667.65
525.00	674.54
526.00	681.97
527.00	686.68
528.00	693.43
529.00	704.32
530.00	710.95
531.00	717.52
532.00	731.17
533.00	744.11
534.00	755.25
535.00	765.27
536.00	776.68
537.00	782.43
538.00	787.44
539.00	799.18
540.00	799.85
541.00	802.86
542.00	801.93
543.00	802.27
544.00	801.96
545.00	802.32
546.00	796.69
547.00	804.02
548.00	798.02
549.00	797.07
550.00	795.27
551.00	795.22
552.00	788.36
553.00	792.29
554.00	794.51
555.00	797.07
556.00	798.55
557.00	795.66
558.00	796.59
559.00	799.03
560.00	794.80
561.00	796.39
562.00	807.65
563.00	809.65
564.00	813.81
565.00	819.50
566.00	824.97
567.00	827.14
568.00	836.79
569.00	839.29
570.00	850.78
571.00	861.08
572.00	872.63
573.00	879.19
574.00	889.74
575.00	901.10
576.00	907.21
577.00	917.03
578.00	935.86
579.00	937.74
580.00	954.13
581.00	957.88
582.00	966.35
583.00	974.69
584.00	983.48
585.00	983.85
586.00	985.43
587.00	993.62
588.00	989.46
589.00	994.06
590.00	994.62
591.00	988.80
592.00	985.57
593.00	980.49
594.00	978.74
595.00	973.89
596.00	968.64
597.00	966.99
598.00	962.02
599.00	955.18
600.00	954.21
601.00	952.04
602.00	948.42
603.00	949.49
604.00	947.04
605.00	945.45
606.00	942.24
607.00	939.48
608.00	938.41
609.00	941.35
610.00	937.79
611.00	939.79
612.00	945.58
613.00	937.46
614.00	946.64
615.00	942.66
616.00	950.40
617.00	948.05
618.00	953.75
619.00	955.99
620.00	957.82
621.00	964.27
622.00	964.13
623.00	964.90
624.00	971.52
625.00	978.05
626.00	980.68
627.00	987.31
628.00	988.29
629.00	995.04
630.00	995.01
631.00	998.80
632.00	1000.28
633.00	1002.88
634.00	1000.91
635.00	1003.91
636.00	999.72
637.00	1001.01
638.00	1000.49
639.00	998.72
640.00	997.81
641.00	989.20
642.00	983.08
643.00	975.73
644.00	970.72
645.00	966.90
646.00	960.73
647.00	949.22
648.00	939.72
649.00	930.89
650.00	920.82
651.00	914.08
652.00	906.62
653.00	899.78
654.00	893.80
655.00	883.74
656.00	875.94
657.00	862.98
658.00	860.51
659.00	847.63
660.00	843.86
661.00	835.73
662.00	827.55
663.00	819.93
664.00	816.95
665.00	807.59
666.00	803.21
667.00	794.39
668.00	794.15
669.00	787.39
670.00	779.08
671.00	763.64
672.00	750.46
673.00	746.68
674.00	755.65
675.00	749.59
676.00	747.23
677.00	741.30
678.00	729.94
679.00	728.58
680.00	722.39
681.00	718.18
682.00	713.64
683.00	703.18
684.00	702.48
685.00	695.57
686.00	692.69
687.00	684.97
688.00	679.38
689.00	672.05
690.00	667.95
691.00	660.61
692.00	655.21
693.00	652.85
694.00	642.59
695.00	636.46
696.00	630.40
697.00	621.90
698.00	611.50
699.00	604.11
700.00	592.98
701.00	582.37
702.00	570.62
703.00	567.87
704.00	548.47
705.00	537.44
706.00	525.89
707.00	511.97
708.00	498.45
709.00	484.55
710.00	470.44
711.00	455.41
712.00	438.89
713.00	425.66
714.00	412.27
715.00	397.91
716.00	384.49
717.00	370.92
718.00	356.84
719.00	343.62
720.00	330.79
721.00	318.53
722.00	308.62
723.00	298.36
724.00	285.95
725.00	275.54
726.00	267.62
727.00	256.83
728.00	247.33
729.00	238.69
730.00	233.15
731.00	224.65
732.00	220.87
733.00	211.08
734.00	205.70
735.00	199.01
736.00	193.82
737.00	189.83
738.00	186.64
739.00	181.78
740.00	180.00
741.00	175.94
742.00	173.93
743.00	172.12
744.00	171.10
745.00	169.03
746.00	167.92
747.00	165.73
748.00	164.63
749.00	162.94
750.00	163.21
751.00	162.46
752.00	161.23
753.00	160.13
754.00	161.62
755.00	158.31
756.00	157.73
757.00	158.05
758.00	159.45
759.00	156.21
760.00	155.90
761.00	155.63
762.00	154.31
763.00	156.10
764.00	154.02
765.00	156.22
766.00	154.77
767.00	154.76
768.00	154.11
769.00	152.91
770.00	153.43
771.00	153.43
772.00	151.77
773.00	153.62
774.00	153.15
775.00	154.22
776.00	151.99
777.00	152.19
778.00	152.88
779.00	151.84
780.00	152.13
781.00	152.58
782.00	152.81
783.00	152.73
784.00	151.00
785.00	153.74
786.00	153.59
787.00	153.72
788.00	151.31
789.00	153.29
790.00	153.82
791.00	150.69
792.00	151.78
793.00	151.96
794.00	151.48
795.00	150.38
796.00	152.66
797.00	150.24
798.00	151.85
799.00	151.07
800.00	150.88
801.00	151.87
802.00	149.83
803.00	151.22
804.00	151.90
805.00	151.03
806.00	150.53
807.00	150.59
808.00	149.02
809.00	150.30
810.00	151.88
811.00	150.72
812.00	150.41
813.00	151.94
814.00	150.53
815.00	151.74
816.00	150.36
817.00	151.95
818.00	150.00
819.00	149.85
820.00	149.52
821.00	149.54
822.00	151.24
823.00	150.38
824.00	149.35
825.00	151.43
826.00	150.41
827.00	150.86
828.00	151.24
829.00	149.61
830.00	152.04
831.00	150.68
832.00	150.43
833.00	150.64
834.00	149.39
835.00	150.83
836.00	150.14
837.00	149.67
838.00	150.59
839.00	150.09
840.00	149.79
841.00	150.18
842.00	151.01
843.00	148.37
844.00	150.45
845.00	150.98
846.00	150.15
847.00	149.54
848.00	149.70
849.00	149.99
850.00	161.33
851.00	149.22
852.00	149.22
853.00	150.93
854.00	151.09
855.00	152.40
856.00	151.00
857.00	151.53
858.00	151.86
859.00	149.80
860.00	150.69
861.00	150.39
862.00	149.89
863.00	149.67
864.00	149.75
865.00	149.66
866.00	149.23
867.00	150.59
868.00	152.32
869.00	150.37
870.00	150.50
871.00	150.28
872.00	152.00
873.00	151.09
874.00	150.47
875.00	149.70
876.00	149.46
877.00	149.98
878.00	150.36
879.00	148.65
880.00	151.09
881.00	150.89
882.00	148.71
883.00	149.68
884.00	150.84
885.00	149.36
886.00	148.81
887.00	150.30
888.00	149.68
889.00	148.44
890.00	150.46
891.00	150.54
892.00	152.92
893.00	149.81
894.00	150.30
895.00	150.35
896.00	151.46
897.00	150.64
898.00	149.64
899.00	150.81
900.00	149.32
901.00	152.03
902.00	148.58
903.00	150.13
904.00	148.87
905.00	153.05
906.00	152.23
907.00	150.53
908.00	149.79
909.00	149.25
910.00	152.25
911.00	150.88
912.00	152.52
913.00	149.30
914.00	149.72
915.00	151.48
916.00	150.10
917.00	149.38
918.00	150.41
919.00	158.15
920.00	151.13
921.00	150.15
922.00	149.13
923.00	149.04
924.00	150.58
925.00	154.63
926.00	151.79
927.00	148.93
928.00	152.01
929.00	148.71
930.00	149.83
931.00	151.79
932.00	150.24
933.00	153.46
934.00	150.25
935.00	149.34
936.00	149.77
937.00	151.65
938.00	151.84
939.00	150.13
940.00	150.51
941.00	151.36
942.00	153.25
943.00	150.87
944.00	150.76
945.00	150.43
946.00	151.05
947.00	149.49
948.00	150.17
949.00	149.33
950.00	150.85
951.00	150.32
952.00	150.56
953.00	149.90
954.00	150.06
955.00	150.20
956.00	151.86
957.00	150.78
958.00	150.26
959.00	150.76
960.00	152.23
961.00	151.07
962.00	152.43
963.00	149.83
964.00	150.31
965.00	150.82
966.00	150.82
967.00	150.79
968.00	152.84
969.00	153.23
970.00	150.48
971.00	149.16
972.00	153.14
973.00	150.75
974.00	151.04
975.00	150.10
976.00	150.73
977.00	150.45
978.00	150.37
979.00	150.96
980.00	150.31
981.00	149.64
982.00	151.03
983.00	148.99
984.00	145.28
985.00	150.61
986.00	150.16
987.00	150.96
988.00	151.50
989.00	150.47
990.00	150.53
991.00	150.82
992.00	150.40
993.00	150.95
994.00	149.69
995.00	150.76
996.00	152.59
997.00	153.60
998.00	151.26
999.00	151.48
1000.00	149.86
>>>>>End Processed Spectral Data<<<<<
