SpectraSuite Data File
++++++++++++++++++++++++++++++++++++
Date: Fri Jul 10 11:55:17 PDT 2026
User: Stephen Warren
Dark Spectrum Present: No
Reference Spectrum Present: No
Number of Sampled Component Spectra: 1
Spectrometers: USB2G24357
Integration Time (usec): 48000 (USB2G24357)
Spectra Averaged: 200 (USB2G24357)
Boxcar Smoothing: 0 (USB2G24357)
Correct for Electrical Dark: No (USB2G24357)
Strobe/Lamp Enabled: No (USB2G24357)
Correct for Detector Non-linearity: No (USB2G24357)
Correct for Stray Light: No (USB2G24357)
Number of Pixels in Processed Spectrum: 651
>>>>>Begin Processed Spectral Data<<<<<
350.00	164.32
351.00	164.76
352.00	165.55
353.00	165.92
354.00	165.42
355.00	165.68
356.00	165.14
357.00	165.02
358.00	166.65
359.00	165.38
360.00	165.25
361.00	166.13
362.00	165.95
363.00	165.61
364.00	166.05
365.00	165.72
366.00	165.73
367.00	166.64
368.00	166.54
369.00	166.88
370.00	166.46
371.00	166.67
372.00	166.39
373.00	167.72
374.00	166.18
375.00	166.13
376.00	165.74
377.00	167.50
378.00	166.86
379.00	166.68
380.00	165.43
381.00	167.45
382.00	166.63
383.00	165.95
384.00	166.53
385.00	166.71
386.00	166.29
387.00	166.74
388.00	166.50
389.00	167.08
390.00	165.96
391.00	166.19
392.00	167.31
393.00	168.16
394.00	166.96
395.00	169.42
396.00	166.55
397.00	166.47
398.00	166.66
399.00	166.55
400.00	166.47
401.00	166.49
402.00	166.83
403.00	167.19
404.00	166.30
405.00	167.04
406.00	166.84
407.00	167.24
408.00	166.97
409.00	167.57
410.00	166.62
411.00	166.38
412.00	167.50
413.00	167.90
414.00	167.48
415.00	167.22
416.00	167.87
417.00	166.79
418.00	166.73
419.00	168.80
420.00	168.01
421.00	167.74
422.00	166.92
423.00	167.19
424.00	167.17
425.00	167.05
426.00	166.90
427.00	167.75
428.00	166.87
429.00	166.82
430.00	166.94
431.00	166.32
432.00	166.91
433.00	167.48
434.00	168.15
435.00	167.35
436.00	167.21
437.00	167.62
438.00	167.82
439.00	167.89
440.00	167.30
441.00	166.75
442.00	167.44
443.00	168.52
444.00	167.27
445.00	167.37
446.00	167.32
447.00	167.33
448.00	167.85
449.00	168.91
450.00	168.16
451.00	167.59
452.00	167.62
453.00	167.84
454.00	167.61
455.00	168.40
456.00	168.09
457.00	168.98
458.00	168.74
459.00	168.36
460.00	167.89
461.00	168.38
462.00	168.97
463.00	168.64
464.00	169.90
465.00	169.28
466.00	169.23
467.00	170.72
468.00	169.72
469.00	169.60
470.00	170.37
471.00	169.65
472.00	169.27
473.00	170.30
474.00	170.25
475.00	170.73
476.00	170.24
477.00	170.70
478.00	170.86
479.00	171.80
480.00	171.48
481.00	170.76
482.00	171.42
483.00	170.99
484.00	172.44
485.00	173.56
486.00	172.73
487.00	172.69
488.00	172.04
489.00	173.22
490.00	173.99
491.00	173.25
492.00	174.54
493.00	175.19
494.00	175.76
495.00	174.77
496.00	176.05
497.00	176.95
498.00	177.84
499.00	177.19
500.00	177.55
501.00	176.71
502.00	176.99
503.00	178.00
504.00	178.98
505.00	177.86
506.00	178.37
507.00	178.32
508.00	180.89
509.00	178.73
510.00	179.40
511.00	178.04
512.00	179.27
513.00	179.58
514.00	179.98
515.00	179.88
516.00	180.05
517.00	180.14
518.00	179.36
519.00	181.61
520.00	181.23
521.00	180.51
522.00	181.83
523.00	182.21
524.00	182.10
525.00	182.20
526.00	182.95
527.00	183.51
528.00	184.63
529.00	185.80
530.00	184.07
531.00	185.07
532.00	185.81
533.00	186.73
534.00	187.21
535.00	188.26
536.00	188.21
537.00	188.70
538.00	188.42
539.00	190.23
540.00	190.64
541.00	189.62
542.00	190.44
543.00	190.62
544.00	189.89
545.00	191.05
546.00	191.50
547.00	194.92
548.00	192.74
549.00	191.76
550.00	192.95
551.00	192.94
552.00	191.92
553.00	192.82
554.00	193.54
555.00	194.32
556.00	194.24
557.00	193.50
558.00	193.64
559.00	195.68
560.00	196.43
561.00	194.52
562.00	196.06
563.00	196.45
564.00	196.18
565.00	198.22
566.00	197.54
567.00	198.84
568.00	199.02
569.00	199.27
570.00	200.63
571.00	200.21
572.00	201.69
573.00	201.94
574.00	202.21
575.00	203.25
576.00	203.10
577.00	203.57
578.00	207.00
579.00	206.09
580.00	207.49
581.00	207.10
582.00	207.75
583.00	208.97
584.00	210.00
585.00	210.22
586.00	210.37
587.00	210.91
588.00	210.74
589.00	211.26
590.00	211.49
591.00	211.02
592.00	211.81
593.00	210.66
594.00	212.00
595.00	211.16
596.00	210.49
597.00	211.70
598.00	211.51
599.00	212.24
600.00	211.36
601.00	211.20
602.00	211.61
603.00	211.86
604.00	211.79
605.00	212.65
606.00	212.30
607.00	211.48
608.00	212.84
609.00	212.09
610.00	211.43
611.00	212.27
612.00	212.90
613.00	212.12
614.00	213.25
615.00	212.09
616.00	214.36
617.00	212.93
618.00	214.85
619.00	214.40
620.00	213.64
621.00	215.19
622.00	214.75
623.00	214.79
624.00	215.66
625.00	216.91
626.00	217.11
627.00	218.61
628.00	217.24
629.00	217.08
630.00	216.97
631.00	218.35
632.00	218.11
633.00	217.75
634.00	218.88
635.00	219.11
636.00	218.54
637.00	219.45
638.00	219.48
639.00	218.72
640.00	218.19
641.00	218.58
642.00	217.64
643.00	217.91
644.00	216.90
645.00	217.82
646.00	217.19
647.00	217.29
648.00	216.30
649.00	216.29
650.00	214.88
651.00	214.40
652.00	213.69
653.00	214.70
654.00	213.98
655.00	213.24
656.00	213.04
657.00	212.66
658.00	213.58
659.00	210.82
660.00	211.51
661.00	210.31
662.00	209.67
663.00	209.72
664.00	210.04
665.00	210.23
666.00	209.17
667.00	207.82
668.00	210.79
669.00	207.99
670.00	207.74
671.00	206.77
672.00	206.81
673.00	205.70
674.00	207.15
675.00	206.88
676.00	207.22
677.00	206.27
678.00	204.91
679.00	205.33
680.00	204.77
681.00	206.17
682.00	206.11
683.00	204.00
684.00	204.30
685.00	203.42
686.00	204.54
687.00	203.44
688.00	202.63
689.00	201.52
690.00	201.99
691.00	200.71
692.00	201.11
693.00	202.34
694.00	201.00
695.00	200.24
696.00	200.13
697.00	200.24
698.00	199.32
699.00	198.54
700.00	198.58
701.00	197.60
702.00	197.09
703.00	200.69
704.00	195.89
705.00	194.73
706.00	195.25
707.00	192.82
708.00	192.25
709.00	191.71
710.00	190.52
711.00	189.84
712.00	187.60
713.00	187.25
714.00	186.21
715.00	185.61
716.00	184.96
717.00	183.62
718.00	182.81
719.00	181.07
720.00	180.39
721.00	179.14
722.00	179.61
723.00	178.83
724.00	177.22
725.00	175.86
726.00	175.96
727.00	174.60
728.00	173.74
729.00	172.99
730.00	173.06
731.00	172.08
732.00	173.58
733.00	171.00
734.00	170.89
735.00	169.85
736.00	169.43
737.00	168.69
738.00	169.28
739.00	167.84
740.00	169.23
741.00	167.77
742.00	167.90
743.00	167.70
744.00	168.23
745.00	167.73
746.00	168.10
747.00	167.22
748.00	167.28
749.00	166.20
750.00	166.94
751.00	167.44
752.00	166.87
753.00	166.42
754.00	167.75
755.00	166.25
756.00	166.30
757.00	166.80
758.00	167.89
759.00	166.17
760.00	166.22
761.00	166.33
762.00	165.50
763.00	167.14
764.00	165.97
765.00	167.60
766.00	166.66
767.00	166.77
768.00	166.50
769.00	165.58
770.00	166.26
771.00	166.03
772.00	165.38
773.00	166.35
774.00	166.48
775.00	167.24
776.00	164.87
777.00	165.71
778.00	166.16
779.00	165.20
780.00	165.93
781.00	166.22
782.00	166.53
783.00	168.01
784.00	165.30
785.00	166.64
786.00	166.72
787.00	167.53
788.00	165.58
789.00	166.47
790.00	167.06
791.00	165.27
792.00	165.77
793.00	166.58
794.00	165.55
795.00	165.41
796.00	166.94
797.00	165.10
798.00	166.26
799.00	165.90
800.00	165.80
801.00	166.63
802.00	165.04
803.00	166.06
804.00	166.51
805.00	166.12
806.00	165.39
807.00	166.12
808.00	164.93
809.00	165.15
810.00	166.57
811.00	165.92
812.00	166.10
813.00	167.11
814.00	166.01
815.00	167.13
816.00	166.12
817.00	166.84
818.00	165.80
819.00	165.73
820.00	165.79
821.00	165.44
822.00	166.33
823.00	165.86
824.00	165.28
825.00	166.50
826.00	166.46
827.00	165.92
828.00	166.87
829.00	165.67
830.00	167.19
831.00	166.27
832.00	166.19
833.00	165.43
834.00	165.20
835.00	166.68
836.00	166.05
837.00	165.21
838.00	166.41
839.00	165.87
840.00	165.69
841.00	166.31
842.00	166.71
843.00	165.09
844.00	166.15
845.00	166.93
846.00	166.06
847.00	165.40
848.00	165.70
849.00	165.69
850.00	173.72
851.00	165.35
852.00	165.58
853.00	166.60
854.00	166.97
855.00	167.54
856.00	166.20
857.00	166.62
858.00	167.53
859.00	166.01
860.00	166.34
861.00	166.17
862.00	165.90
863.00	165.73
864.00	165.55
865.00	166.03
866.00	165.30
867.00	166.48
868.00	167.77
869.00	166.64
870.00	166.42
871.00	165.78
872.00	167.25
873.00	166.74
874.00	166.50
875.00	165.28
876.00	165.35
877.00	165.65
878.00	166.25
879.00	164.84
880.00	166.39
881.00	166.67
882.00	165.00
883.00	165.40
884.00	166.82
885.00	165.41
886.00	165.28
887.00	165.85
888.00	165.70
889.00	165.03
890.00	166.34
891.00	166.29
892.00	168.01
893.00	165.72
894.00	166.03
895.00	166.48
896.00	166.68
897.00	166.38
898.00	165.97
899.00	166.53
900.00	165.93
901.00	166.90
902.00	164.80
903.00	166.26
904.00	165.45
905.00	168.48
906.00	167.27
907.00	166.27
908.00	165.97
909.00	165.57
910.00	167.55
911.00	167.32
912.00	167.92
913.00	165.48
914.00	165.74
915.00	167.18
916.00	166.51
917.00	165.42
918.00	166.54
919.00	170.90
920.00	166.15
921.00	166.48
922.00	165.34
923.00	165.31
924.00	166.77
925.00	169.62
926.00	167.16
927.00	165.21
928.00	167.58
929.00	165.49
930.00	165.98
931.00	167.58
932.00	166.29
933.00	168.46
934.00	166.27
935.00	165.56
936.00	165.94
937.00	167.34
938.00	167.44
939.00	166.26
940.00	166.08
941.00	167.23
942.00	168.25
943.00	166.58
944.00	166.45
945.00	166.10
946.00	166.63
947.00	165.96
948.00	166.35
949.00	165.43
950.00	166.83
951.00	166.44
952.00	166.50
953.00	166.12
954.00	166.36
955.00	166.39
956.00	167.76
957.00	166.51
958.00	166.00
959.00	166.14
960.00	167.63
961.00	166.89
962.00	167.92
963.00	165.85
964.00	166.50
965.00	166.53
966.00	166.81
967.00	166.54
968.00	167.87
969.00	168.37
970.00	166.39
971.00	165.81
972.00	168.33
973.00	166.51
974.00	166.90
975.00	165.81
976.00	167.29
977.00	166.33
978.00	166.64
979.00	166.68
980.00	166.70
981.00	166.33
982.00	166.74
983.00	164.93
984.00	163.53
985.00	166.19
986.00	166.45
987.00	167.10
988.00	167.17
989.00	166.63
990.00	166.64
991.00	166.26
992.00	166.69
993.00	166.57
994.00	165.95
995.00	166.84
996.00	167.80
997.00	168.69
998.00	166.88
999.00	167.64
1000.00	166.08
>>>>>End Processed Spectral Data<<<<<
