SpectraSuite Data File
++++++++++++++++++++++++++++++++++++
Date: Tue Aug 04 12:39:14 PDT 2026
User: Stephen Warren
Dark Spectrum Present: No
Reference Spectrum Present: No
Number of Sampled Component Spectra: 1
Spectrometers: USB2G24357
Integration Time (usec): 48000 (USB2G24357)
Spectra Averaged: 200 (USB2G24357)
Boxcar Smoothing: 0 (USB2G24357)
Correct for Electrical Dark: No (USB2G24357)
Strobe/Lamp Enabled: No (USB2G24357)
Correct for Detector Non-linearity: No (USB2G24357)
Correct for Stray Light: No (USB2G24357)
Number of Pixels in Processed Spectrum: 651
>>>>>Begin Processed Spectral Data<<<<<
350.00	157.35
351.00	157.89
352.00	158.85
353.00	159.11
354.00	158.93
355.00	158.87
356.00	158.45
357.00	158.19
358.00	160.29
359.00	158.93
360.00	158.51
361.00	159.71
362.00	159.15
363.00	158.61
364.00	159.14
365.00	159.13
366.00	159.33
367.00	160.49
368.00	159.68
369.00	159.96
370.00	159.68
371.00	159.87
372.00	160.04
373.00	160.93
374.00	159.25
375.00	159.37
376.00	158.93
377.00	160.14
378.00	160.36
379.00	160.22
380.00	159.30
381.00	160.51
382.00	159.80
383.00	159.12
384.00	159.59
385.00	159.82
386.00	160.19
387.00	159.51
388.00	159.66
389.00	160.42
390.00	159.30
391.00	159.74
392.00	160.42
393.00	161.25
394.00	160.54
395.00	162.93
396.00	159.53
397.00	159.79
398.00	160.18
399.00	160.01
400.00	160.07
401.00	159.60
402.00	160.06
403.00	160.41
404.00	159.91
405.00	160.29
406.00	160.02
407.00	160.83
408.00	160.36
409.00	161.23
410.00	160.00
411.00	159.75
412.00	161.16
413.00	160.92
414.00	161.13
415.00	161.07
416.00	161.52
417.00	160.49
418.00	160.30
419.00	162.53
420.00	161.39
421.00	161.75
422.00	160.95
423.00	160.55
424.00	160.91
425.00	161.09
426.00	161.02
427.00	161.73
428.00	161.00
429.00	160.90
430.00	161.07
431.00	160.88
432.00	160.94
433.00	161.21
434.00	162.27
435.00	161.90
436.00	161.71
437.00	162.20
438.00	162.65
439.00	162.77
440.00	162.47
441.00	161.77
442.00	162.33
443.00	163.60
444.00	162.05
445.00	162.82
446.00	162.46
447.00	161.91
448.00	162.51
449.00	163.86
450.00	163.33
451.00	162.80
452.00	162.71
453.00	163.01
454.00	163.24
455.00	163.67
456.00	163.19
457.00	164.32
458.00	164.20
459.00	163.92
460.00	163.72
461.00	164.00
462.00	165.57
463.00	164.58
464.00	165.92
465.00	164.94
466.00	165.11
467.00	167.20
468.00	166.43
469.00	166.09
470.00	166.76
471.00	166.62
472.00	166.15
473.00	166.91
474.00	166.98
475.00	167.23
476.00	166.95
477.00	167.58
478.00	168.00
479.00	168.80
480.00	168.28
481.00	168.09
482.00	168.51
483.00	168.50
484.00	169.88
485.00	171.01
486.00	170.23
487.00	170.67
488.00	169.94
489.00	171.41
490.00	172.30
491.00	171.87
492.00	173.87
493.00	173.86
494.00	174.66
495.00	173.77
496.00	174.77
497.00	176.53
498.00	177.12
499.00	176.09
500.00	176.67
501.00	176.05
502.00	176.64
503.00	177.32
504.00	178.04
505.00	177.25
506.00	177.67
507.00	177.76
508.00	180.42
509.00	177.65
510.00	178.45
511.00	177.50
512.00	178.02
513.00	178.26
514.00	178.48
515.00	178.35
516.00	178.43
517.00	178.69
518.00	177.75
519.00	180.42
520.00	179.65
521.00	179.39
522.00	179.77
523.00	180.39
524.00	179.80
525.00	180.53
526.00	180.83
527.00	181.68
528.00	182.14
529.00	183.20
530.00	182.62
531.00	182.82
532.00	183.65
533.00	184.72
534.00	185.26
535.00	186.77
536.00	185.65
537.00	186.31
538.00	186.26
539.00	188.35
540.00	188.85
541.00	187.64
542.00	187.88
543.00	188.39
544.00	186.94
545.00	188.58
546.00	188.27
547.00	192.22
548.00	189.59
549.00	188.60
550.00	189.30
551.00	189.98
552.00	188.21
553.00	189.33
554.00	189.32
555.00	190.26
556.00	190.08
557.00	189.56
558.00	190.46
559.00	191.68
560.00	192.06
561.00	190.09
562.00	191.95
563.00	192.60
564.00	192.61
565.00	194.30
566.00	193.73
567.00	194.97
568.00	194.97
569.00	195.18
570.00	196.73
571.00	196.70
572.00	198.24
573.00	198.19
574.00	198.32
575.00	199.56
576.00	199.74
577.00	199.94
578.00	203.38
579.00	202.35
580.00	204.25
581.00	204.02
582.00	204.62
583.00	205.42
584.00	206.89
585.00	206.74
586.00	206.85
587.00	207.69
588.00	206.74
589.00	207.91
590.00	208.46
591.00	208.64
592.00	208.96
593.00	207.64
594.00	208.52
595.00	207.18
596.00	206.74
597.00	208.30
598.00	208.71
599.00	208.13
600.00	208.17
601.00	207.59
602.00	207.69
603.00	208.64
604.00	208.35
605.00	209.70
606.00	209.17
607.00	207.43
608.00	208.94
609.00	208.46
610.00	207.93
611.00	208.86
612.00	209.85
613.00	208.32
614.00	209.17
615.00	208.90
616.00	210.59
617.00	209.63
618.00	211.46
619.00	211.13
620.00	210.23
621.00	211.21
622.00	211.82
623.00	211.46
624.00	212.47
625.00	213.38
626.00	213.64
627.00	215.38
628.00	213.45
629.00	213.78
630.00	213.36
631.00	215.11
632.00	215.24
633.00	213.87
634.00	215.46
635.00	215.89
636.00	215.04
637.00	216.10
638.00	215.79
639.00	215.12
640.00	214.72
641.00	215.75
642.00	214.41
643.00	214.74
644.00	213.51
645.00	214.04
646.00	213.63
647.00	213.45
648.00	212.65
649.00	212.22
650.00	211.20
651.00	210.71
652.00	209.77
653.00	210.33
654.00	210.42
655.00	209.75
656.00	209.33
657.00	207.99
658.00	209.74
659.00	206.58
660.00	207.42
661.00	205.88
662.00	206.08
663.00	205.13
664.00	205.65
665.00	205.66
666.00	204.82
667.00	203.81
668.00	206.04
669.00	203.65
670.00	203.38
671.00	202.61
672.00	201.87
673.00	200.95
674.00	202.64
675.00	202.60
676.00	202.65
677.00	201.34
678.00	199.88
679.00	200.15
680.00	199.91
681.00	200.63
682.00	201.00
683.00	198.44
684.00	199.24
685.00	198.67
686.00	199.56
687.00	198.31
688.00	196.91
689.00	196.40
690.00	196.88
691.00	195.15
692.00	196.08
693.00	196.63
694.00	195.37
695.00	194.51
696.00	195.04
697.00	194.75
698.00	193.75
699.00	193.06
700.00	193.06
701.00	191.96
702.00	190.50
703.00	195.46
704.00	189.88
705.00	188.90
706.00	189.80
707.00	187.26
708.00	186.48
709.00	185.66
710.00	184.45
711.00	184.07
712.00	181.95
713.00	181.59
714.00	180.14
715.00	179.29
716.00	179.08
717.00	177.89
718.00	176.54
719.00	174.90
720.00	173.88
721.00	173.16
722.00	173.27
723.00	172.48
724.00	171.01
725.00	169.67
726.00	169.29
727.00	167.95
728.00	167.09
729.00	166.17
730.00	166.99
731.00	165.26
732.00	167.17
733.00	164.57
734.00	164.64
735.00	163.15
736.00	162.84
737.00	162.22
738.00	162.70
739.00	161.64
740.00	162.41
741.00	160.71
742.00	161.20
743.00	161.13
744.00	161.78
745.00	160.98
746.00	161.21
747.00	160.33
748.00	160.67
749.00	160.03
750.00	160.42
751.00	160.37
752.00	160.00
753.00	160.44
754.00	161.55
755.00	159.62
756.00	159.85
757.00	160.07
758.00	161.16
759.00	159.72
760.00	159.18
761.00	159.48
762.00	158.70
763.00	159.80
764.00	159.30
765.00	160.96
766.00	159.79
767.00	159.79
768.00	159.44
769.00	158.76
770.00	159.55
771.00	159.34
772.00	158.71
773.00	159.47
774.00	159.51
775.00	160.46
776.00	158.54
777.00	159.18
778.00	159.74
779.00	158.55
780.00	158.78
781.00	159.54
782.00	159.94
783.00	161.90
784.00	158.92
785.00	160.61
786.00	160.27
787.00	160.67
788.00	158.87
789.00	160.12
790.00	160.49
791.00	158.42
792.00	159.44
793.00	159.80
794.00	159.46
795.00	158.85
796.00	160.33
797.00	158.43
798.00	159.45
799.00	159.06
800.00	159.33
801.00	159.96
802.00	158.48
803.00	159.44
804.00	160.22
805.00	159.22
806.00	159.13
807.00	159.29
808.00	158.47
809.00	159.11
810.00	160.06
811.00	159.46
812.00	159.09
813.00	160.34
814.00	159.18
815.00	160.65
816.00	159.48
817.00	160.39
818.00	159.22
819.00	159.02
820.00	158.99
821.00	158.88
822.00	160.14
823.00	159.08
824.00	158.64
825.00	160.12
826.00	159.64
827.00	159.83
828.00	160.21
829.00	159.06
830.00	160.73
831.00	160.03
832.00	159.61
833.00	158.81
834.00	158.68
835.00	160.04
836.00	159.24
837.00	158.71
838.00	159.98
839.00	158.87
840.00	159.02
841.00	159.75
842.00	160.17
843.00	157.96
844.00	159.52
845.00	160.19
846.00	159.31
847.00	158.98
848.00	159.17
849.00	158.79
850.00	168.33
851.00	158.38
852.00	158.38
853.00	159.72
854.00	160.24
855.00	161.10
856.00	159.76
857.00	160.67
858.00	160.71
859.00	159.21
860.00	159.63
861.00	159.40
862.00	158.89
863.00	159.03
864.00	158.90
865.00	159.21
866.00	158.68
867.00	159.99
868.00	161.06
869.00	159.88
870.00	160.11
871.00	159.46
872.00	160.71
873.00	160.09
874.00	159.91
875.00	158.60
876.00	159.14
877.00	158.85
878.00	159.64
879.00	158.47
880.00	160.35
881.00	159.82
882.00	158.42
883.00	159.41
884.00	160.15
885.00	158.63
886.00	158.64
887.00	159.39
888.00	159.34
889.00	157.93
890.00	159.54
891.00	159.74
892.00	161.78
893.00	159.22
894.00	159.25
895.00	159.88
896.00	159.90
897.00	159.84
898.00	159.06
899.00	160.13
900.00	158.78
901.00	160.76
902.00	158.47
903.00	159.37
904.00	158.71
905.00	162.01
906.00	160.79
907.00	159.53
908.00	159.14
909.00	159.02
910.00	161.10
911.00	160.56
912.00	161.94
913.00	158.57
914.00	159.23
915.00	160.63
916.00	159.48
917.00	158.93
918.00	159.81
919.00	161.11
920.00	159.70
921.00	159.89
922.00	158.57
923.00	158.77
924.00	160.11
925.00	163.23
926.00	160.89
927.00	158.75
928.00	161.04
929.00	158.72
930.00	159.47
931.00	161.28
932.00	159.57
933.00	162.07
934.00	159.43
935.00	159.33
936.00	159.10
937.00	160.71
938.00	160.87
939.00	159.57
940.00	160.08
941.00	160.37
942.00	161.55
943.00	160.23
944.00	159.60
945.00	159.23
946.00	160.37
947.00	159.24
948.00	159.24
949.00	158.80
950.00	159.89
951.00	159.35
952.00	160.12
953.00	159.32
954.00	159.68
955.00	159.52
956.00	160.86
957.00	160.00
958.00	159.56
959.00	159.91
960.00	161.29
961.00	160.33
962.00	161.30
963.00	159.61
964.00	159.84
965.00	159.91
966.00	160.26
967.00	159.98
968.00	161.63
969.00	162.22
970.00	159.60
971.00	159.11
972.00	162.03
973.00	160.35
974.00	160.26
975.00	159.31
976.00	160.39
977.00	159.85
978.00	159.45
979.00	160.49
980.00	159.72
981.00	159.69
982.00	160.65
983.00	158.74
984.00	157.22
985.00	159.83
986.00	160.12
987.00	160.31
988.00	160.64
989.00	159.91
990.00	159.94
991.00	159.85
992.00	160.29
993.00	160.11
994.00	159.39
995.00	160.21
996.00	161.44
997.00	161.47
998.00	160.48
999.00	160.54
1000.00	159.69
>>>>>End Processed Spectral Data<<<<<
