SpectraSuite Data File
++++++++++++++++++++++++++++++++++++
Date: Tue Aug 04 11:33:33 PDT 2026
User: Stephen Warren
Dark Spectrum Present: No
Reference Spectrum Present: No
Number of Sampled Component Spectra: 1
Spectrometers: USB2G24357
Integration Time (usec): 48000 (USB2G24357)
Spectra Averaged: 200 (USB2G24357)
Boxcar Smoothing: 0 (USB2G24357)
Correct for Electrical Dark: No (USB2G24357)
Strobe/Lamp Enabled: No (USB2G24357)
Correct for Detector Non-linearity: No (USB2G24357)
Correct for Stray Light: No (USB2G24357)
Number of Pixels in Processed Spectrum: 651
>>>>>Begin Processed Spectral Data<<<<<
350.00	162.42
351.00	163.05
352.00	163.89
353.00	164.11
354.00	164.04
355.00	163.74
356.00	163.55
357.00	163.13
358.00	165.41
359.00	164.12
360.00	163.83
361.00	164.83
362.00	164.29
363.00	163.96
364.00	164.33
365.00	163.61
366.00	164.79
367.00	165.34
368.00	165.54
369.00	165.16
370.00	164.72
371.00	165.23
372.00	164.78
373.00	166.03
374.00	164.86
375.00	164.40
376.00	164.30
377.00	165.53
378.00	165.63
379.00	165.20
380.00	164.35
381.00	165.68
382.00	164.76
383.00	164.32
384.00	164.85
385.00	164.85
386.00	165.00
387.00	165.08
388.00	164.69
389.00	165.49
390.00	165.09
391.00	164.74
392.00	165.46
393.00	165.98
394.00	165.24
395.00	168.03
396.00	165.24
397.00	165.05
398.00	165.36
399.00	165.16
400.00	165.05
401.00	164.83
402.00	165.63
403.00	165.58
404.00	164.79
405.00	165.53
406.00	165.26
407.00	165.86
408.00	165.60
409.00	166.24
410.00	165.17
411.00	164.88
412.00	165.74
413.00	166.75
414.00	166.46
415.00	166.17
416.00	166.31
417.00	165.53
418.00	165.50
419.00	167.60
420.00	166.66
421.00	166.98
422.00	166.33
423.00	166.01
424.00	165.68
425.00	166.20
426.00	166.22
427.00	166.96
428.00	166.04
429.00	166.05
430.00	166.18
431.00	165.97
432.00	166.66
433.00	166.61
434.00	167.53
435.00	166.78
436.00	167.04
437.00	167.44
438.00	167.52
439.00	167.47
440.00	167.73
441.00	166.86
442.00	167.07
443.00	168.45
444.00	166.94
445.00	167.68
446.00	167.28
447.00	167.58
448.00	167.65
449.00	169.07
450.00	168.50
451.00	167.97
452.00	167.61
453.00	167.44
454.00	168.10
455.00	168.18
456.00	168.41
457.00	169.06
458.00	168.88
459.00	169.26
460.00	168.80
461.00	169.14
462.00	169.97
463.00	170.04
464.00	171.04
465.00	170.30
466.00	170.17
467.00	172.03
468.00	171.29
469.00	171.24
470.00	171.79
471.00	170.87
472.00	171.30
473.00	171.67
474.00	171.51
475.00	172.35
476.00	172.06
477.00	172.17
478.00	172.59
479.00	173.85
480.00	172.91
481.00	172.39
482.00	173.56
483.00	173.23
484.00	174.58
485.00	175.32
486.00	175.32
487.00	175.48
488.00	174.16
489.00	176.14
490.00	176.26
491.00	176.64
492.00	177.62
493.00	178.27
494.00	179.07
495.00	178.37
496.00	179.46
497.00	180.59
498.00	180.74
499.00	180.62
500.00	180.98
501.00	180.31
502.00	180.79
503.00	180.96
504.00	181.91
505.00	181.18
506.00	181.48
507.00	181.93
508.00	183.97
509.00	181.60
510.00	182.03
511.00	181.00
512.00	181.59
513.00	181.80
514.00	182.08
515.00	181.99
516.00	181.86
517.00	182.08
518.00	181.41
519.00	183.62
520.00	183.16
521.00	182.91
522.00	183.07
523.00	183.65
524.00	183.49
525.00	183.84
526.00	184.15
527.00	184.49
528.00	185.41
529.00	186.57
530.00	184.69
531.00	185.81
532.00	186.38
533.00	187.17
534.00	187.48
535.00	189.08
536.00	187.89
537.00	188.82
538.00	188.24
539.00	189.90
540.00	190.25
541.00	189.45
542.00	189.59
543.00	190.15
544.00	189.34
545.00	190.24
546.00	190.00
547.00	193.45
548.00	191.17
549.00	189.82
550.00	190.94
551.00	190.87
552.00	189.81
553.00	190.17
554.00	190.97
555.00	191.04
556.00	191.29
557.00	190.69
558.00	191.01
559.00	192.50
560.00	192.69
561.00	190.86
562.00	192.27
563.00	192.28
564.00	192.57
565.00	194.06
566.00	193.06
567.00	194.03
568.00	193.71
569.00	194.65
570.00	195.35
571.00	195.00
572.00	196.16
573.00	196.66
574.00	196.61
575.00	197.60
576.00	198.05
577.00	197.56
578.00	200.36
579.00	199.37
580.00	200.92
581.00	201.23
582.00	200.96
583.00	201.43
584.00	202.67
585.00	202.66
586.00	202.66
587.00	202.38
588.00	202.56
589.00	203.22
590.00	203.21
591.00	203.28
592.00	203.79
593.00	202.18
594.00	202.88
595.00	202.34
596.00	202.24
597.00	203.11
598.00	203.02
599.00	203.06
600.00	202.86
601.00	202.51
602.00	202.50
603.00	202.83
604.00	202.51
605.00	204.40
606.00	203.32
607.00	202.25
608.00	204.02
609.00	203.29
610.00	202.54
611.00	203.35
612.00	203.50
613.00	203.08
614.00	203.97
615.00	202.76
616.00	204.64
617.00	203.60
618.00	205.23
619.00	204.33
620.00	204.22
621.00	205.24
622.00	204.83
623.00	204.51
624.00	205.18
625.00	206.62
626.00	206.52
627.00	208.70
628.00	206.92
629.00	206.68
630.00	206.29
631.00	207.75
632.00	207.71
633.00	207.30
634.00	207.97
635.00	208.78
636.00	207.50
637.00	208.25
638.00	208.07
639.00	207.92
640.00	207.85
641.00	208.00
642.00	206.80
643.00	207.52
644.00	206.38
645.00	206.86
646.00	206.78
647.00	206.42
648.00	205.29
649.00	205.88
650.00	204.18
651.00	204.07
652.00	203.83
653.00	203.88
654.00	203.99
655.00	203.74
656.00	203.06
657.00	202.38
658.00	203.63
659.00	201.23
660.00	201.58
661.00	200.69
662.00	200.20
663.00	200.02
664.00	199.96
665.00	200.58
666.00	199.65
667.00	198.45
668.00	201.04
669.00	198.95
670.00	198.60
671.00	197.77
672.00	197.51
673.00	196.71
674.00	198.01
675.00	198.20
676.00	198.05
677.00	196.80
678.00	196.01
679.00	195.98
680.00	195.17
681.00	196.93
682.00	196.95
683.00	195.21
684.00	195.28
685.00	194.60
686.00	195.35
687.00	194.34
688.00	193.61
689.00	192.75
690.00	193.76
691.00	192.78
692.00	192.85
693.00	193.27
694.00	192.09
695.00	191.80
696.00	191.84
697.00	191.70
698.00	191.18
699.00	190.61
700.00	190.11
701.00	190.02
702.00	188.73
703.00	192.97
704.00	188.29
705.00	188.02
706.00	188.51
707.00	185.74
708.00	185.43
709.00	185.37
710.00	184.14
711.00	183.73
712.00	181.87
713.00	181.49
714.00	180.72
715.00	179.94
716.00	180.25
717.00	179.05
718.00	178.13
719.00	176.63
720.00	175.36
721.00	175.04
722.00	175.68
723.00	174.96
724.00	173.56
725.00	172.92
726.00	172.88
727.00	171.23
728.00	171.37
729.00	169.87
730.00	170.07
731.00	169.22
732.00	170.67
733.00	168.81
734.00	168.94
735.00	167.82
736.00	167.12
737.00	167.00
738.00	167.44
739.00	166.49
740.00	166.88
741.00	165.75
742.00	165.91
743.00	165.52
744.00	166.47
745.00	166.03
746.00	166.20
747.00	165.54
748.00	165.30
749.00	164.92
750.00	165.21
751.00	165.56
752.00	165.29
753.00	164.81
754.00	166.49
755.00	164.64
756.00	164.67
757.00	164.88
758.00	165.94
759.00	164.44
760.00	164.31
761.00	164.23
762.00	163.53
763.00	165.39
764.00	164.31
765.00	166.04
766.00	165.18
767.00	165.07
768.00	164.45
769.00	163.98
770.00	164.41
771.00	164.62
772.00	163.61
773.00	164.91
774.00	164.92
775.00	164.98
776.00	163.59
777.00	164.18
778.00	164.38
779.00	163.37
780.00	164.34
781.00	164.56
782.00	164.88
783.00	166.64
784.00	163.75
785.00	165.79
786.00	164.89
787.00	165.47
788.00	163.96
789.00	164.79
790.00	165.53
791.00	163.62
792.00	164.51
793.00	165.14
794.00	164.23
795.00	163.65
796.00	165.45
797.00	163.57
798.00	164.80
799.00	164.27
800.00	164.33
801.00	164.98
802.00	163.83
803.00	164.39
804.00	165.11
805.00	164.40
806.00	164.15
807.00	164.61
808.00	163.58
809.00	164.27
810.00	165.45
811.00	164.59
812.00	164.44
813.00	165.37
814.00	164.44
815.00	165.28
816.00	164.71
817.00	165.28
818.00	164.36
819.00	164.01
820.00	164.22
821.00	164.15
822.00	165.36
823.00	164.59
824.00	163.67
825.00	165.29
826.00	164.90
827.00	164.59
828.00	165.03
829.00	164.05
830.00	165.71
831.00	164.70
832.00	164.31
833.00	164.16
834.00	163.77
835.00	165.15
836.00	164.38
837.00	163.90
838.00	164.62
839.00	164.07
840.00	164.30
841.00	164.55
842.00	165.09
843.00	163.51
844.00	165.09
845.00	164.91
846.00	163.88
847.00	163.72
848.00	164.05
849.00	164.03
850.00	172.63
851.00	163.89
852.00	163.76
853.00	164.91
854.00	165.02
855.00	165.94
856.00	165.01
857.00	165.40
858.00	165.67
859.00	164.16
860.00	164.49
861.00	164.74
862.00	164.36
863.00	164.36
864.00	164.04
865.00	164.00
866.00	164.19
867.00	164.91
868.00	166.10
869.00	164.99
870.00	165.21
871.00	164.35
872.00	165.77
873.00	165.24
874.00	164.69
875.00	163.83
876.00	164.17
877.00	164.02
878.00	164.59
879.00	163.30
880.00	164.79
881.00	164.85
882.00	163.54
883.00	164.05
884.00	164.90
885.00	163.85
886.00	163.43
887.00	164.34
888.00	164.37
889.00	163.46
890.00	165.44
891.00	165.13
892.00	166.63
893.00	164.55
894.00	164.36
895.00	165.07
896.00	164.75
897.00	165.27
898.00	163.76
899.00	165.20
900.00	164.22
901.00	165.55
902.00	163.46
903.00	164.80
904.00	164.36
905.00	166.65
906.00	165.62
907.00	164.83
908.00	164.81
909.00	164.03
910.00	166.01
911.00	165.18
912.00	166.56
913.00	163.90
914.00	164.40
915.00	165.62
916.00	165.34
917.00	164.20
918.00	165.07
919.00	169.94
920.00	164.93
921.00	164.89
922.00	163.95
923.00	163.85
924.00	165.26
925.00	167.95
926.00	165.78
927.00	163.84
928.00	166.14
929.00	163.83
930.00	164.87
931.00	165.76
932.00	164.74
933.00	166.97
934.00	164.52
935.00	164.07
936.00	164.05
937.00	165.54
938.00	166.25
939.00	165.05
940.00	164.81
941.00	165.22
942.00	166.48
943.00	165.30
944.00	164.87
945.00	164.72
946.00	165.24
947.00	164.39
948.00	164.73
949.00	163.88
950.00	164.91
951.00	164.90
952.00	164.98
953.00	164.51
954.00	164.87
955.00	164.17
956.00	165.90
957.00	165.23
958.00	164.73
959.00	164.93
960.00	166.52
961.00	165.15
962.00	166.16
963.00	164.27
964.00	164.72
965.00	165.27
966.00	165.07
967.00	165.22
968.00	166.54
969.00	167.23
970.00	164.81
971.00	164.33
972.00	166.96
973.00	165.16
974.00	165.48
975.00	164.66
976.00	165.45
977.00	164.83
978.00	165.04
979.00	165.37
980.00	165.28
981.00	164.64
982.00	165.56
983.00	163.62
984.00	161.93
985.00	164.77
986.00	164.81
987.00	165.15
988.00	165.36
989.00	164.64
990.00	164.82
991.00	164.73
992.00	165.09
993.00	165.26
994.00	164.29
995.00	165.31
996.00	166.10
997.00	165.73
998.00	164.96
999.00	165.73
1000.00	164.32
>>>>>End Processed Spectral Data<<<<<
