SpectraSuite Data File
++++++++++++++++++++++++++++++++++++
Date: Tue Aug 04 12:33:49 PDT 2026
User: Stephen Warren
Dark Spectrum Present: No
Reference Spectrum Present: No
Number of Sampled Component Spectra: 1
Spectrometers: USB2G24357
Integration Time (usec): 48000 (USB2G24357)
Spectra Averaged: 200 (USB2G24357)
Boxcar Smoothing: 0 (USB2G24357)
Correct for Electrical Dark: No (USB2G24357)
Strobe/Lamp Enabled: No (USB2G24357)
Correct for Detector Non-linearity: No (USB2G24357)
Correct for Stray Light: No (USB2G24357)
Number of Pixels in Processed Spectrum: 651
>>>>>Begin Processed Spectral Data<<<<<
350.00	157.78
351.00	158.28
352.00	159.00
353.00	159.47
354.00	159.18
355.00	159.25
356.00	158.93
357.00	158.67
358.00	160.51
359.00	159.38
360.00	159.01
361.00	159.65
362.00	159.50
363.00	158.82
364.00	159.36
365.00	159.09
366.00	159.90
367.00	160.59
368.00	160.69
369.00	160.23
370.00	159.89
371.00	160.70
372.00	160.57
373.00	161.60
374.00	159.66
375.00	159.60
376.00	159.55
377.00	160.90
378.00	160.70
379.00	160.24
380.00	159.39
381.00	160.92
382.00	160.41
383.00	159.59
384.00	160.00
385.00	159.76
386.00	160.21
387.00	160.43
388.00	160.28
389.00	160.44
390.00	160.05
391.00	159.96
392.00	161.02
393.00	161.42
394.00	160.55
395.00	163.21
396.00	160.34
397.00	160.10
398.00	160.78
399.00	160.30
400.00	160.75
401.00	159.97
402.00	160.63
403.00	160.93
404.00	160.20
405.00	160.97
406.00	160.78
407.00	161.54
408.00	161.11
409.00	161.24
410.00	160.77
411.00	160.58
412.00	161.64
413.00	162.04
414.00	161.87
415.00	161.63
416.00	162.38
417.00	161.36
418.00	161.48
419.00	163.22
420.00	162.51
421.00	162.71
422.00	161.89
423.00	162.02
424.00	162.00
425.00	162.26
426.00	161.89
427.00	162.98
428.00	161.96
429.00	162.06
430.00	162.31
431.00	162.27
432.00	162.54
433.00	163.06
434.00	163.75
435.00	163.43
436.00	163.29
437.00	164.11
438.00	164.10
439.00	164.41
440.00	164.25
441.00	163.86
442.00	164.41
443.00	165.95
444.00	164.49
445.00	164.59
446.00	164.38
447.00	164.46
448.00	165.15
449.00	166.54
450.00	165.74
451.00	165.02
452.00	165.35
453.00	165.33
454.00	165.50
455.00	165.82
456.00	166.13
457.00	166.75
458.00	167.12
459.00	167.63
460.00	166.45
461.00	167.46
462.00	167.88
463.00	168.46
464.00	169.68
465.00	169.02
466.00	168.77
467.00	171.12
468.00	170.27
469.00	170.48
470.00	170.83
471.00	170.96
472.00	170.62
473.00	171.30
474.00	171.26
475.00	172.27
476.00	171.78
477.00	172.34
478.00	173.00
479.00	173.79
480.00	173.71
481.00	173.40
482.00	173.92
483.00	173.75
484.00	175.82
485.00	176.80
486.00	176.28
487.00	176.87
488.00	176.84
489.00	178.27
490.00	178.97
491.00	179.23
492.00	181.05
493.00	181.61
494.00	182.34
495.00	181.56
496.00	183.61
497.00	184.49
498.00	185.97
499.00	185.35
500.00	185.63
501.00	184.85
502.00	185.63
503.00	185.75
504.00	186.95
505.00	185.93
506.00	186.43
507.00	186.56
508.00	188.95
509.00	186.28
510.00	187.04
511.00	185.92
512.00	186.07
513.00	186.49
514.00	186.49
515.00	187.12
516.00	187.05
517.00	187.52
518.00	186.91
519.00	189.00
520.00	188.34
521.00	187.72
522.00	189.08
523.00	189.25
524.00	189.14
525.00	189.85
526.00	190.08
527.00	190.89
528.00	191.32
529.00	192.85
530.00	191.68
531.00	192.51
532.00	193.29
533.00	193.87
534.00	195.34
535.00	196.86
536.00	196.30
537.00	196.49
538.00	196.29
539.00	199.03
540.00	198.50
541.00	197.81
542.00	198.00
543.00	198.31
544.00	197.86
545.00	198.80
546.00	199.08
547.00	202.58
548.00	199.92
549.00	198.21
550.00	199.56
551.00	199.45
552.00	197.46
553.00	198.49
554.00	199.15
555.00	200.16
556.00	199.83
557.00	199.04
558.00	199.62
559.00	200.94
560.00	201.67
561.00	199.19
562.00	201.56
563.00	201.54
564.00	201.63
565.00	203.35
566.00	202.70
567.00	203.85
568.00	203.78
569.00	204.29
570.00	205.95
571.00	206.01
572.00	207.31
573.00	207.24
574.00	207.75
575.00	209.26
576.00	209.28
577.00	209.30
578.00	212.75
579.00	212.19
580.00	213.67
581.00	213.28
582.00	213.88
583.00	214.61
584.00	216.56
585.00	216.42
586.00	216.18
587.00	217.17
588.00	216.29
589.00	217.13
590.00	217.43
591.00	217.06
592.00	217.80
593.00	216.36
594.00	217.02
595.00	216.90
596.00	215.36
597.00	217.04
598.00	216.87
599.00	216.50
600.00	216.21
601.00	215.51
602.00	215.78
603.00	216.81
604.00	216.51
605.00	217.62
606.00	217.34
607.00	215.29
608.00	216.96
609.00	217.02
610.00	215.70
611.00	217.09
612.00	217.76
613.00	216.60
614.00	217.21
615.00	216.69
616.00	219.12
617.00	217.33
618.00	219.24
619.00	219.04
620.00	218.81
621.00	220.17
622.00	219.93
623.00	219.05
624.00	220.18
625.00	221.08
626.00	222.50
627.00	223.93
628.00	222.57
629.00	222.20
630.00	222.04
631.00	223.81
632.00	223.35
633.00	222.86
634.00	223.49
635.00	224.49
636.00	223.39
637.00	224.97
638.00	224.74
639.00	224.35
640.00	223.79
641.00	223.39
642.00	222.83
643.00	222.72
644.00	222.44
645.00	222.64
646.00	222.53
647.00	221.89
648.00	220.06
649.00	220.12
650.00	219.07
651.00	218.36
652.00	217.77
653.00	218.43
654.00	217.56
655.00	217.00
656.00	216.63
657.00	215.82
658.00	217.07
659.00	214.11
660.00	214.77
661.00	213.09
662.00	212.94
663.00	212.37
664.00	213.40
665.00	213.00
666.00	212.16
667.00	210.13
668.00	212.56
669.00	210.10
670.00	209.92
671.00	209.14
672.00	207.55
673.00	206.91
674.00	209.01
675.00	208.57
676.00	208.93
677.00	207.53
678.00	206.16
679.00	206.67
680.00	205.62
681.00	207.26
682.00	207.08
683.00	204.49
684.00	205.45
685.00	204.38
686.00	205.29
687.00	203.92
688.00	203.10
689.00	202.04
690.00	202.84
691.00	201.60
692.00	201.82
693.00	202.49
694.00	201.14
695.00	200.12
696.00	200.56
697.00	199.58
698.00	198.56
699.00	197.91
700.00	197.61
701.00	197.00
702.00	195.10
703.00	200.45
704.00	194.99
705.00	193.49
706.00	194.02
707.00	191.21
708.00	190.76
709.00	189.66
710.00	188.52
711.00	187.50
712.00	185.64
713.00	185.13
714.00	183.42
715.00	182.03
716.00	181.81
717.00	180.35
718.00	179.43
719.00	177.39
720.00	175.84
721.00	175.05
722.00	175.30
723.00	174.60
724.00	172.91
725.00	171.74
726.00	171.36
727.00	170.07
728.00	168.69
729.00	167.09
730.00	168.15
731.00	166.86
732.00	167.98
733.00	165.66
734.00	165.22
735.00	164.40
736.00	163.56
737.00	163.06
738.00	163.89
739.00	162.34
740.00	162.70
741.00	161.87
742.00	162.09
743.00	161.52
744.00	162.11
745.00	161.83
746.00	161.76
747.00	160.98
748.00	161.31
749.00	160.24
750.00	161.05
751.00	161.34
752.00	160.64
753.00	160.50
754.00	161.91
755.00	159.96
756.00	160.34
757.00	160.62
758.00	161.57
759.00	159.56
760.00	160.07
761.00	159.85
762.00	159.18
763.00	160.63
764.00	159.80
765.00	161.56
766.00	160.12
767.00	160.44
768.00	159.86
769.00	159.44
770.00	160.15
771.00	160.16
772.00	158.67
773.00	159.99
774.00	160.15
775.00	161.01
776.00	158.95
777.00	159.35
778.00	159.85
779.00	158.97
780.00	159.40
781.00	159.47
782.00	160.38
783.00	161.34
784.00	159.07
785.00	160.78
786.00	160.44
787.00	161.12
788.00	159.08
789.00	160.42
790.00	161.00
791.00	159.09
792.00	159.87
793.00	160.05
794.00	159.76
795.00	158.95
796.00	160.95
797.00	158.85
798.00	160.28
799.00	159.62
800.00	159.60
801.00	160.23
802.00	159.31
803.00	159.77
804.00	160.49
805.00	160.13
806.00	159.84
807.00	159.55
808.00	158.35
809.00	159.65
810.00	160.51
811.00	159.85
812.00	159.41
813.00	160.49
814.00	159.77
815.00	161.06
816.00	159.83
817.00	160.73
818.00	159.82
819.00	159.34
820.00	159.58
821.00	159.02
822.00	160.45
823.00	159.36
824.00	159.18
825.00	160.64
826.00	160.16
827.00	160.04
828.00	160.54
829.00	159.64
830.00	160.93
831.00	160.36
832.00	160.01
833.00	159.51
834.00	159.13
835.00	160.76
836.00	159.66
837.00	159.15
838.00	159.97
839.00	159.62
840.00	159.33
841.00	159.99
842.00	160.59
843.00	158.96
844.00	160.14
845.00	160.45
846.00	159.51
847.00	159.42
848.00	159.05
849.00	159.18
850.00	168.30
851.00	158.82
852.00	158.80
853.00	160.25
854.00	160.40
855.00	161.39
856.00	160.29
857.00	160.39
858.00	160.90
859.00	159.80
860.00	160.26
861.00	160.06
862.00	159.69
863.00	159.24
864.00	159.64
865.00	159.55
866.00	159.25
867.00	159.81
868.00	161.21
869.00	159.96
870.00	160.03
871.00	159.80
872.00	161.09
873.00	160.77
874.00	159.95
875.00	159.45
876.00	159.12
877.00	159.68
878.00	160.36
879.00	159.10
880.00	160.41
881.00	160.06
882.00	158.89
883.00	159.57
884.00	160.14
885.00	159.25
886.00	158.79
887.00	159.84
888.00	159.52
889.00	158.65
890.00	160.36
891.00	160.21
892.00	161.88
893.00	159.61
894.00	159.80
895.00	160.05
896.00	160.34
897.00	160.17
898.00	159.40
899.00	160.39
900.00	159.41
901.00	161.08
902.00	158.41
903.00	159.97
904.00	159.15
905.00	161.89
906.00	161.25
907.00	160.43
908.00	159.79
909.00	159.47
910.00	161.47
911.00	160.50
912.00	161.93
913.00	159.17
914.00	159.29
915.00	160.98
916.00	160.35
917.00	159.21
918.00	160.34
919.00	161.96
920.00	160.41
921.00	159.80
922.00	158.96
923.00	159.24
924.00	160.41
925.00	163.57
926.00	161.14
927.00	159.40
928.00	161.60
929.00	158.90
930.00	159.77
931.00	161.38
932.00	160.07
933.00	162.48
934.00	159.81
935.00	159.41
936.00	159.59
937.00	160.79
938.00	161.28
939.00	160.01
940.00	160.23
941.00	161.12
942.00	162.11
943.00	160.41
944.00	160.35
945.00	160.41
946.00	160.61
947.00	159.61
948.00	159.85
949.00	159.26
950.00	160.17
951.00	160.22
952.00	160.44
953.00	160.00
954.00	159.92
955.00	160.00
956.00	161.32
957.00	160.47
958.00	159.71
959.00	160.36
960.00	161.92
961.00	160.65
962.00	161.63
963.00	159.95
964.00	160.43
965.00	160.43
966.00	160.55
967.00	159.88
968.00	162.13
969.00	162.62
970.00	159.75
971.00	159.14
972.00	162.16
973.00	160.44
974.00	161.03
975.00	159.38
976.00	160.51
977.00	160.59
978.00	159.99
979.00	160.45
980.00	160.21
981.00	159.63
982.00	160.88
983.00	159.02
984.00	158.33
985.00	160.15
986.00	160.36
987.00	160.60
988.00	160.96
989.00	160.35
990.00	159.92
991.00	160.33
992.00	160.48
993.00	160.32
994.00	159.69
995.00	160.36
996.00	161.70
997.00	161.30
998.00	160.69
999.00	160.81
1000.00	159.97
>>>>>End Processed Spectral Data<<<<<
