SpectraSuite Data File
++++++++++++++++++++++++++++++++++++
Date: Tue Aug 04 13:07:09 PDT 2026
User: Stephen Warren
Dark Spectrum Present: No
Reference Spectrum Present: No
Number of Sampled Component Spectra: 1
Spectrometers: USB2G24357
Integration Time (usec): 48000 (USB2G24357)
Spectra Averaged: 200 (USB2G24357)
Boxcar Smoothing: 0 (USB2G24357)
Correct for Electrical Dark: No (USB2G24357)
Strobe/Lamp Enabled: No (USB2G24357)
Correct for Detector Non-linearity: No (USB2G24357)
Correct for Stray Light: No (USB2G24357)
Number of Pixels in Processed Spectrum: 651
>>>>>Begin Processed Spectral Data<<<<<
350.00	155.45
351.00	155.87
352.00	156.61
353.00	157.05
354.00	156.95
355.00	156.46
356.00	156.37
357.00	156.22
358.00	158.25
359.00	156.74
360.00	156.59
361.00	157.52
362.00	156.93
363.00	156.50
364.00	156.98
365.00	156.59
366.00	157.38
367.00	158.01
368.00	157.93
369.00	157.94
370.00	157.65
371.00	158.06
372.00	157.58
373.00	159.04
374.00	157.08
375.00	157.06
376.00	156.55
377.00	158.27
378.00	158.38
379.00	158.27
380.00	157.10
381.00	158.24
382.00	157.38
383.00	157.10
384.00	157.39
385.00	157.59
386.00	157.79
387.00	157.70
388.00	157.60
389.00	158.21
390.00	157.43
391.00	158.02
392.00	158.65
393.00	159.27
394.00	158.00
395.00	161.22
396.00	158.13
397.00	158.23
398.00	158.23
399.00	158.69
400.00	158.03
401.00	157.77
402.00	158.53
403.00	158.70
404.00	157.92
405.00	158.63
406.00	158.61
407.00	158.91
408.00	158.59
409.00	159.46
410.00	158.50
411.00	158.11
412.00	159.50
413.00	160.08
414.00	159.95
415.00	160.04
416.00	160.65
417.00	159.44
418.00	160.02
419.00	161.86
420.00	160.57
421.00	161.18
422.00	160.46
423.00	160.43
424.00	160.44
425.00	161.05
426.00	160.56
427.00	161.95
428.00	161.10
429.00	161.17
430.00	161.28
431.00	160.91
432.00	161.40
433.00	162.07
434.00	163.07
435.00	162.98
436.00	163.04
437.00	163.55
438.00	164.13
439.00	164.51
440.00	164.70
441.00	164.08
442.00	164.43
443.00	166.12
444.00	165.19
445.00	165.59
446.00	165.44
447.00	165.13
448.00	165.99
449.00	167.43
450.00	166.58
451.00	165.95
452.00	166.28
453.00	166.58
454.00	166.72
455.00	167.31
456.00	167.52
457.00	168.89
458.00	168.83
459.00	169.20
460.00	168.85
461.00	169.77
462.00	171.16
463.00	171.00
464.00	172.62
465.00	172.33
466.00	172.78
467.00	175.23
468.00	174.59
469.00	174.43
470.00	175.12
471.00	175.11
472.00	175.16
473.00	175.97
474.00	176.55
475.00	177.02
476.00	177.18
477.00	178.03
478.00	178.42
479.00	180.02
480.00	179.95
481.00	179.63
482.00	181.20
483.00	181.32
484.00	183.05
485.00	184.76
486.00	184.65
487.00	185.17
488.00	185.53
489.00	187.43
490.00	189.05
491.00	189.46
492.00	191.62
493.00	192.62
494.00	193.90
495.00	194.12
496.00	196.07
497.00	197.92
498.00	199.02
499.00	198.13
500.00	198.80
501.00	198.30
502.00	199.26
503.00	199.91
504.00	200.66
505.00	200.02
506.00	200.52
507.00	200.30
508.00	203.12
509.00	200.91
510.00	201.06
511.00	199.93
512.00	200.47
513.00	201.15
514.00	201.30
515.00	201.49
516.00	201.48
517.00	202.08
518.00	201.20
519.00	204.13
520.00	203.34
521.00	203.55
522.00	204.00
523.00	205.31
524.00	204.98
525.00	205.13
526.00	206.44
527.00	207.53
528.00	208.53
529.00	210.23
530.00	209.43
531.00	210.68
532.00	211.93
533.00	213.81
534.00	214.10
535.00	216.63
536.00	216.22
537.00	217.23
538.00	217.26
539.00	220.10
540.00	219.80
541.00	219.35
542.00	219.94
543.00	219.67
544.00	218.69
545.00	220.53
546.00	220.22
547.00	224.27
548.00	221.54
549.00	220.26
550.00	221.11
551.00	220.98
552.00	219.45
553.00	219.95
554.00	220.29
555.00	221.58
556.00	221.10
557.00	221.02
558.00	221.41
559.00	222.93
560.00	223.93
561.00	221.36
562.00	223.56
563.00	224.09
564.00	224.79
565.00	226.63
566.00	226.23
567.00	227.49
568.00	228.03
569.00	228.32
570.00	230.97
571.00	230.91
572.00	232.69
573.00	233.17
574.00	234.52
575.00	236.06
576.00	237.08
577.00	237.43
578.00	241.34
579.00	240.51
580.00	243.24
581.00	242.66
582.00	243.89
583.00	245.02
584.00	246.80
585.00	246.83
586.00	246.63
587.00	247.84
588.00	247.42
589.00	248.21
590.00	248.32
591.00	248.12
592.00	248.98
593.00	246.62
594.00	247.12
595.00	246.16
596.00	245.84
597.00	246.56
598.00	246.50
599.00	246.38
600.00	245.60
601.00	245.05
602.00	245.48
603.00	245.79
604.00	245.54
605.00	246.82
606.00	246.02
607.00	244.49
608.00	245.36
609.00	245.35
610.00	245.03
611.00	246.09
612.00	246.13
613.00	245.32
614.00	246.53
615.00	246.33
616.00	248.05
617.00	247.02
618.00	248.44
619.00	248.40
620.00	247.98
621.00	250.02
622.00	249.77
623.00	248.86
624.00	250.28
625.00	251.97
626.00	252.22
627.00	255.05
628.00	253.08
629.00	252.93
630.00	252.91
631.00	254.51
632.00	254.60
633.00	254.21
634.00	254.75
635.00	256.23
636.00	254.62
637.00	255.21
638.00	255.84
639.00	254.55
640.00	254.16
641.00	254.57
642.00	252.59
643.00	252.60
644.00	251.95
645.00	252.92
646.00	251.54
647.00	250.86
648.00	248.74
649.00	248.21
650.00	246.78
651.00	246.23
652.00	244.92
653.00	244.71
654.00	244.50
655.00	243.41
656.00	242.14
657.00	240.50
658.00	242.44
659.00	238.18
660.00	239.33
661.00	237.37
662.00	236.72
663.00	235.88
664.00	236.43
665.00	235.14
666.00	234.56
667.00	232.72
668.00	235.46
669.00	232.26
670.00	231.85
671.00	229.94
672.00	228.87
673.00	228.58
674.00	230.25
675.00	230.00
676.00	228.85
677.00	227.94
678.00	225.97
679.00	225.82
680.00	225.26
681.00	226.54
682.00	226.04
683.00	223.39
684.00	223.27
685.00	222.41
686.00	223.39
687.00	221.81
688.00	220.73
689.00	219.75
690.00	219.93
691.00	217.93
692.00	218.10
693.00	219.33
694.00	216.95
695.00	216.46
696.00	216.51
697.00	215.72
698.00	214.19
699.00	213.57
700.00	212.53
701.00	211.30
702.00	209.79
703.00	210.67
704.00	207.27
705.00	206.30
706.00	206.92
707.00	202.93
708.00	201.80
709.00	200.36
710.00	198.29
711.00	196.93
712.00	194.13
713.00	193.09
714.00	191.33
715.00	189.59
716.00	188.49
717.00	187.07
718.00	185.27
719.00	182.83
720.00	180.42
721.00	179.86
722.00	179.29
723.00	177.69
724.00	175.95
725.00	174.20
726.00	173.87
727.00	171.13
728.00	170.02
729.00	168.19
730.00	168.57
731.00	166.83
732.00	168.23
733.00	165.85
734.00	164.96
735.00	163.67
736.00	162.95
737.00	162.08
738.00	162.48
739.00	161.36
740.00	161.93
741.00	160.30
742.00	160.31
743.00	160.08
744.00	160.57
745.00	160.41
746.00	159.96
747.00	158.94
748.00	159.37
749.00	158.56
750.00	159.18
751.00	159.26
752.00	159.24
753.00	158.61
754.00	159.74
755.00	157.86
756.00	158.33
757.00	158.85
758.00	159.61
759.00	157.77
760.00	157.74
761.00	157.96
762.00	157.05
763.00	158.55
764.00	157.32
765.00	159.13
766.00	158.27
767.00	158.28
768.00	157.77
769.00	156.95
770.00	157.18
771.00	157.80
772.00	156.60
773.00	157.86
774.00	157.47
775.00	158.37
776.00	156.38
777.00	156.96
778.00	157.79
779.00	156.78
780.00	157.39
781.00	157.38
782.00	157.77
783.00	157.61
784.00	156.88
785.00	158.17
786.00	158.21
787.00	158.77
788.00	156.88
789.00	158.04
790.00	158.63
791.00	156.64
792.00	157.42
793.00	157.85
794.00	157.32
795.00	156.90
796.00	158.18
797.00	156.30
798.00	158.61
799.00	157.38
800.00	156.95
801.00	157.99
802.00	156.50
803.00	157.58
804.00	158.10
805.00	157.42
806.00	156.94
807.00	157.62
808.00	156.30
809.00	157.11
810.00	158.46
811.00	157.38
812.00	157.26
813.00	158.61
814.00	157.28
815.00	158.59
816.00	157.31
817.00	158.72
818.00	157.03
819.00	156.86
820.00	157.21
821.00	156.91
822.00	158.08
823.00	157.10
824.00	157.10
825.00	158.04
826.00	157.68
827.00	157.55
828.00	158.29
829.00	157.10
830.00	158.83
831.00	157.49
832.00	157.56
833.00	156.99
834.00	156.56
835.00	157.44
836.00	157.22
837.00	157.15
838.00	157.93
839.00	156.97
840.00	157.00
841.00	157.32
842.00	158.19
843.00	156.19
844.00	157.77
845.00	158.11
846.00	156.92
847.00	156.69
848.00	157.26
849.00	157.14
850.00	166.06
851.00	156.90
852.00	156.44
853.00	157.67
854.00	158.02
855.00	159.33
856.00	158.01
857.00	158.43
858.00	159.22
859.00	157.29
860.00	157.60
861.00	157.79
862.00	157.22
863.00	157.24
864.00	157.28
865.00	157.46
866.00	156.72
867.00	157.82
868.00	159.04
869.00	157.75
870.00	157.91
871.00	157.41
872.00	158.87
873.00	158.47
874.00	157.60
875.00	157.08
876.00	156.99
877.00	156.95
878.00	157.69
879.00	156.41
880.00	158.14
881.00	158.12
882.00	156.09
883.00	157.05
884.00	157.76
885.00	156.90
886.00	156.53
887.00	157.65
888.00	157.39
889.00	156.42
890.00	157.75
891.00	158.02
892.00	159.80
893.00	157.47
894.00	157.69
895.00	157.98
896.00	158.55
897.00	158.04
898.00	157.00
899.00	158.39
900.00	157.29
901.00	158.93
902.00	156.39
903.00	157.44
904.00	156.84
905.00	160.05
906.00	158.52
907.00	157.74
908.00	156.99
909.00	157.01
910.00	159.11
911.00	158.61
912.00	159.23
913.00	156.52
914.00	157.62
915.00	158.48
916.00	157.71
917.00	157.35
918.00	157.56
919.00	163.61
920.00	158.26
921.00	157.78
922.00	156.60
923.00	156.87
924.00	158.21
925.00	161.01
926.00	158.92
927.00	156.71
928.00	159.29
929.00	156.26
930.00	157.71
931.00	159.00
932.00	157.72
933.00	160.45
934.00	157.07
935.00	157.27
936.00	157.11
937.00	158.83
938.00	158.96
939.00	157.53
940.00	157.49
941.00	158.12
942.00	159.77
943.00	158.19
944.00	157.91
945.00	157.69
946.00	158.25
947.00	156.74
948.00	157.34
949.00	156.66
950.00	158.27
951.00	157.85
952.00	157.99
953.00	157.58
954.00	157.48
955.00	157.33
956.00	159.03
957.00	157.80
958.00	157.39
959.00	157.85
960.00	159.45
961.00	158.08
962.00	159.47
963.00	157.44
964.00	157.84
965.00	158.02
966.00	158.46
967.00	158.26
968.00	159.90
969.00	160.44
970.00	157.82
971.00	156.63
972.00	159.79
973.00	158.19
974.00	158.22
975.00	157.45
976.00	158.35
977.00	157.86
978.00	157.50
979.00	158.33
980.00	157.73
981.00	157.81
982.00	158.42
983.00	156.45
984.00	154.31
985.00	157.67
986.00	157.79
987.00	158.13
988.00	158.64
989.00	158.16
990.00	157.93
991.00	157.98
992.00	157.91
993.00	158.22
994.00	157.21
995.00	158.24
996.00	159.44
997.00	159.13
998.00	158.03
999.00	159.10
1000.00	157.40
>>>>>End Processed Spectral Data<<<<<
