SpectraSuite Data File
++++++++++++++++++++++++++++++++++++
Date: Wed Jul 22 15:23:59 PDT 2026
User: Stephen Warren
Dark Spectrum Present: No
Reference Spectrum Present: No
Number of Sampled Component Spectra: 1
Spectrometers: USB2G24357
Integration Time (usec): 48000 (USB2G24357)
Spectra Averaged: 200 (USB2G24357)
Boxcar Smoothing: 0 (USB2G24357)
Correct for Electrical Dark: No (USB2G24357)
Strobe/Lamp Enabled: No (USB2G24357)
Correct for Detector Non-linearity: No (USB2G24357)
Correct for Stray Light: No (USB2G24357)
Number of Pixels in Processed Spectrum: 651
>>>>>Begin Processed Spectral Data<<<<<
350.00	123.25
351.00	124.04
352.00	125.36
353.00	126.17
354.00	125.43
355.00	125.02
356.00	124.53
357.00	124.64
358.00	127.47
359.00	125.12
360.00	124.40
361.00	125.75
362.00	125.28
363.00	124.97
364.00	125.74
365.00	125.07
366.00	125.74
367.00	127.23
368.00	126.28
369.00	126.61
370.00	126.51
371.00	126.54
372.00	126.23
373.00	128.13
374.00	125.96
375.00	125.50
376.00	125.08
377.00	126.35
378.00	127.30
379.00	126.38
380.00	125.78
381.00	127.52
382.00	126.89
383.00	125.62
384.00	125.63
385.00	125.72
386.00	126.26
387.00	125.78
388.00	125.80
389.00	126.52
390.00	125.65
391.00	125.63
392.00	127.35
393.00	127.48
394.00	126.57
395.00	129.94
396.00	126.46
397.00	125.97
398.00	127.55
399.00	126.27
400.00	125.78
401.00	125.65
402.00	126.92
403.00	126.90
404.00	126.13
405.00	126.60
406.00	126.30
407.00	126.89
408.00	126.82
409.00	127.85
410.00	126.53
411.00	125.30
412.00	127.25
413.00	127.64
414.00	127.94
415.00	127.26
416.00	127.78
417.00	126.28
418.00	126.99
419.00	129.30
420.00	127.99
421.00	128.28
422.00	127.18
423.00	126.92
424.00	126.70
425.00	127.09
426.00	126.61
427.00	128.56
428.00	126.92
429.00	126.90
430.00	127.43
431.00	127.28
432.00	126.66
433.00	127.00
434.00	128.59
435.00	127.94
436.00	127.55
437.00	127.89
438.00	128.23
439.00	128.41
440.00	127.81
441.00	126.95
442.00	127.34
443.00	128.78
444.00	127.11
445.00	128.07
446.00	128.66
447.00	126.59
448.00	127.27
449.00	130.24
450.00	127.98
451.00	127.79
452.00	127.31
453.00	127.02
454.00	127.52
455.00	127.91
456.00	128.05
457.00	128.60
458.00	128.42
459.00	128.27
460.00	127.03
461.00	128.01
462.00	128.42
463.00	128.26
464.00	129.23
465.00	128.49
466.00	127.98
467.00	130.30
468.00	129.66
469.00	128.91
470.00	129.38
471.00	128.29
472.00	128.53
473.00	129.12
474.00	128.91
475.00	129.45
476.00	128.29
477.00	129.11
478.00	129.39
479.00	130.81
480.00	129.78
481.00	128.59
482.00	129.68
483.00	129.07
484.00	130.43
485.00	131.05
486.00	130.21
487.00	129.99
488.00	128.49
489.00	130.38
490.00	130.96
491.00	130.12
492.00	131.84
493.00	131.07
494.00	131.68
495.00	130.30
496.00	131.35
497.00	132.51
498.00	133.19
499.00	131.80
500.00	132.09
501.00	130.99
502.00	131.24
503.00	132.07
504.00	133.28
505.00	132.11
506.00	132.39
507.00	132.35
508.00	135.99
509.00	132.19
510.00	133.33
511.00	131.18
512.00	132.15
513.00	131.84
514.00	132.20
515.00	132.13
516.00	131.56
517.00	132.11
518.00	131.25
519.00	134.10
520.00	132.68
521.00	131.89
522.00	132.38
523.00	132.49
524.00	132.00
525.00	131.94
526.00	132.19
527.00	132.74
528.00	133.38
529.00	134.34
530.00	132.25
531.00	132.71
532.00	133.02
533.00	133.28
534.00	133.40
535.00	135.02
536.00	132.98
537.00	133.48
538.00	132.78
539.00	134.44
540.00	134.53
541.00	133.57
542.00	133.38
543.00	133.30
544.00	132.61
545.00	134.12
546.00	133.66
547.00	137.56
548.00	134.64
549.00	132.80
550.00	134.31
551.00	134.55
552.00	132.94
553.00	133.37
554.00	132.44
555.00	133.56
556.00	133.93
557.00	133.05
558.00	133.70
559.00	135.41
560.00	136.15
561.00	132.69
562.00	134.82
563.00	134.08
564.00	133.94
565.00	135.65
566.00	133.87
567.00	134.48
568.00	134.58
569.00	134.90
570.00	136.28
571.00	135.31
572.00	134.67
573.00	134.54
574.00	135.10
575.00	134.60
576.00	134.44
577.00	133.42
578.00	137.49
579.00	135.15
580.00	136.07
581.00	135.47
582.00	135.57
583.00	135.52
584.00	137.86
585.00	136.93
586.00	136.00
587.00	136.57
588.00	136.29
589.00	136.40
590.00	137.07
591.00	136.67
592.00	137.31
593.00	134.94
594.00	137.23
595.00	135.69
596.00	135.42
597.00	136.59
598.00	137.40
599.00	137.47
600.00	135.86
601.00	135.94
602.00	137.13
603.00	137.12
604.00	137.32
605.00	138.58
606.00	138.12
607.00	135.84
608.00	137.41
609.00	136.81
610.00	136.52
611.00	136.60
612.00	136.41
613.00	135.95
614.00	135.93
615.00	135.23
616.00	137.61
617.00	135.38
618.00	138.08
619.00	136.89
620.00	135.26
621.00	136.93
622.00	135.95
623.00	135.52
624.00	136.65
625.00	137.64
626.00	137.14
627.00	139.94
628.00	137.14
629.00	136.43
630.00	136.60
631.00	137.56
632.00	137.63
633.00	136.24
634.00	137.36
635.00	137.82
636.00	136.04
637.00	137.35
638.00	138.03
639.00	136.56
640.00	136.20
641.00	137.31
642.00	136.77
643.00	137.04
644.00	135.58
645.00	137.30
646.00	136.89
647.00	137.43
648.00	136.76
649.00	135.89
650.00	135.71
651.00	135.88
652.00	135.27
653.00	136.72
654.00	135.72
655.00	136.54
656.00	135.61
657.00	135.73
658.00	137.53
659.00	134.29
660.00	135.96
661.00	134.19
662.00	134.66
663.00	134.75
664.00	135.37
665.00	135.87
666.00	134.39
667.00	134.14
668.00	137.27
669.00	134.30
670.00	134.69
671.00	134.14
672.00	134.55
673.00	133.56
674.00	135.09
675.00	135.78
676.00	134.93
677.00	134.10
678.00	133.16
679.00	133.90
680.00	132.89
681.00	135.17
682.00	135.64
683.00	133.32
684.00	133.87
685.00	133.38
686.00	134.96
687.00	132.85
688.00	132.47
689.00	132.09
690.00	133.59
691.00	132.33
692.00	132.39
693.00	134.09
694.00	132.19
695.00	131.46
696.00	132.42
697.00	132.62
698.00	132.25
699.00	131.51
700.00	132.51
701.00	132.32
702.00	131.91
703.00	138.20
704.00	131.60
705.00	131.72
706.00	132.94
707.00	130.94
708.00	131.14
709.00	130.91
710.00	130.68
711.00	131.04
712.00	129.48
713.00	129.90
714.00	129.08
715.00	129.52
716.00	130.56
717.00	129.44
718.00	129.84
719.00	128.69
720.00	128.39
721.00	128.43
722.00	129.24
723.00	129.84
724.00	128.51
725.00	127.96
726.00	128.38
727.00	127.74
728.00	127.42
729.00	126.49
730.00	127.97
731.00	126.74
732.00	129.91
733.00	127.59
734.00	128.03
735.00	127.84
736.00	127.15
737.00	126.38
738.00	127.55
739.00	126.16
740.00	127.95
741.00	126.06
742.00	126.69
743.00	126.67
744.00	127.69
745.00	127.65
746.00	127.02
747.00	126.15
748.00	126.66
749.00	125.75
750.00	126.92
751.00	126.96
752.00	126.56
753.00	126.11
754.00	127.74
755.00	125.41
756.00	125.43
757.00	126.75
758.00	128.34
759.00	126.22
760.00	125.51
761.00	125.99
762.00	124.46
763.00	126.75
764.00	125.50
765.00	127.43
766.00	126.14
767.00	126.61
768.00	126.74
769.00	125.91
770.00	126.12
771.00	126.50
772.00	125.15
773.00	126.25
774.00	126.22
775.00	127.18
776.00	125.19
777.00	125.55
778.00	126.29
779.00	125.07
780.00	125.89
781.00	126.68
782.00	126.75
783.00	127.75
784.00	124.95
785.00	127.50
786.00	127.94
787.00	127.18
788.00	125.32
789.00	127.37
790.00	127.95
791.00	125.08
792.00	126.11
793.00	126.42
794.00	126.29
795.00	125.22
796.00	127.45
797.00	125.34
798.00	127.87
799.00	126.22
800.00	126.08
801.00	127.24
802.00	125.08
803.00	126.99
804.00	127.58
805.00	126.22
806.00	126.38
807.00	126.77
808.00	124.66
809.00	126.35
810.00	127.44
811.00	126.85
812.00	126.15
813.00	127.67
814.00	126.47
815.00	127.98
816.00	125.95
817.00	127.54
818.00	126.10
819.00	125.93
820.00	125.81
821.00	125.16
822.00	127.16
823.00	126.49
824.00	125.87
825.00	127.53
826.00	127.13
827.00	126.56
828.00	127.49
829.00	125.90
830.00	128.24
831.00	127.14
832.00	126.40
833.00	127.09
834.00	125.58
835.00	127.23
836.00	126.12
837.00	126.65
838.00	126.78
839.00	126.47
840.00	125.79
841.00	126.99
842.00	126.96
843.00	124.67
844.00	126.72
845.00	127.86
846.00	125.65
847.00	126.13
848.00	125.48
849.00	126.27
850.00	139.05
851.00	125.60
852.00	125.48
853.00	126.89
854.00	127.44
855.00	129.08
856.00	127.55
857.00	127.84
858.00	128.30
859.00	126.25
860.00	126.62
861.00	126.73
862.00	125.87
863.00	126.42
864.00	126.91
865.00	126.45
866.00	125.46
867.00	126.55
868.00	128.56
869.00	127.05
870.00	127.38
871.00	126.14
872.00	128.78
873.00	127.93
874.00	127.17
875.00	126.73
876.00	126.28
877.00	126.29
878.00	126.82
879.00	125.97
880.00	127.69
881.00	127.27
882.00	124.86
883.00	126.13
884.00	126.95
885.00	125.73
886.00	125.64
887.00	126.94
888.00	127.09
889.00	124.94
890.00	127.16
891.00	127.27
892.00	129.44
893.00	126.41
894.00	126.95
895.00	127.13
896.00	127.62
897.00	127.43
898.00	126.48
899.00	127.59
900.00	125.76
901.00	128.71
902.00	124.91
903.00	126.94
904.00	125.77
905.00	129.89
906.00	128.35
907.00	127.22
908.00	126.60
909.00	125.96
910.00	129.00
911.00	127.72
912.00	129.58
913.00	126.36
914.00	126.53
915.00	127.93
916.00	127.13
917.00	125.75
918.00	127.46
919.00	134.73
920.00	128.39
921.00	127.10
922.00	126.07
923.00	125.84
924.00	127.18
925.00	131.58
926.00	128.38
927.00	126.18
928.00	128.35
929.00	125.49
930.00	127.13
931.00	128.62
932.00	126.85
933.00	130.08
934.00	127.36
935.00	125.86
936.00	126.89
937.00	128.40
938.00	128.70
939.00	126.84
940.00	127.54
941.00	127.95
942.00	130.85
943.00	127.33
944.00	127.86
945.00	127.16
946.00	127.49
947.00	125.88
948.00	126.86
949.00	126.25
950.00	128.47
951.00	127.62
952.00	127.49
953.00	127.31
954.00	126.76
955.00	126.87
956.00	129.31
957.00	127.67
958.00	127.36
959.00	127.42
960.00	129.22
961.00	127.98
962.00	129.99
963.00	126.62
964.00	127.23
965.00	127.69
966.00	127.77
967.00	127.61
968.00	130.32
969.00	130.40
970.00	127.24
971.00	125.43
972.00	130.32
973.00	127.69
974.00	128.14
975.00	126.51
976.00	128.19
977.00	127.65
978.00	126.99
979.00	128.14
980.00	126.97
981.00	127.04
982.00	128.50
983.00	125.82
984.00	120.79
985.00	129.72
986.00	127.83
987.00	127.88
988.00	128.47
989.00	127.69
990.00	127.06
991.00	127.75
992.00	127.78
993.00	128.15
994.00	126.46
995.00	127.66
996.00	129.51
997.00	129.06
998.00	128.93
999.00	128.45
1000.00	126.94
>>>>>End Processed Spectral Data<<<<<
